     An Atom Counting QSPR Protocol 

S. Giri1, D. R. Roy1, P. Bultinck2,* , V. Subramanian3,* and P. K. Chattaraj1,* 

 
1Department of Chemistry, Indian Institute of Technology, Kharagpur 721302, India 
2Department of Inorganic and Physical Chemistry, Ghent University, Krijgslaan 281,B-

9000 Gent, Belgium 
3Chemical Laboratory, Central Leather Research Institute, Adyar, Chennai 600 020, India 
 

Abstract 
 

A  deceptively  simple  descriptor,  viz.  the  number  of  carbon  /  non-hydrogenic 

atoms  present  in  a  molecule,  is  proposed  for  the  development  of  useful  quantitative-

structure-property-relationship  (QSPR)  models.  It  is  tested  in  models  pertaining  to  the 

estimation  of  boiling  point  of  alcohols,  enthalpy  of  vaporization  of  polychlorinated 

biphenyls (PCBs), n-octanol / water partition coefficient of PCBs and chloroanisoles, pKa 

values  of  carboxylic  acids,  phenols  and  alcohols  etc.  Very  high  values  of  various 

regression coefficients (R2, R2

CV, R2

Ad) suggest the significance of this descriptor which 

further improves in the resulting two-parameter QSPR models with electrophilicity or its 

local variant as an additional descriptor. 

 
* To receive all correspondence: P. K. Chattaraj 
 
 
  

 

 

    Department of Chemistry,  
    Indian Institute of Technology,  
    Kharagpur 721302, India  
    E-mail: pkc@chem.iitkgp.ernet.in 
    Fax: +91-3222-255303 
 

 

 

 

 

 

 

 

 

1

 
 
 
 
 
 
Abbreviations: DFT- Density functional theory  

   

 

  QSAR- Quantitative Structure Activity Relationship 
  QSPR- Quantitative Structure Property Relationship 
  FF- Fukui function 
  PCBs - Polychlorinated biphenyls 
  pKa - Acid-base dissociation constant 
  
  NC - number of carbon atoms  
  NNH - number of non-hydrogenic atoms  
  SD - Standard deviation  
  N - Number of observations 

- Vaporization enthalpy 

vap HΔ

m

 
 
 
 
 
 
Keywords: Atom Counting, QSPR, Electrophilicity 
 

 

 

 

 

 

 

 

 

 

 

 

 

 

 

 

2

Introduction 

 

Quantitative Structure- Activity Relationship (QSAR) and Quantitative Structure- 

Property  Relationship  (QSPR)  studies  have  seen  recent  upsurge  of  interest  because  of 

their  potential  in  predicting  various  activities  and  properties  of  complex  molecules    

bypassing  the  actual  experimental  observation.  These  studies  rest  on  the  presupposition 

that the molecular descriptors bear the signature of the molecular structure and hence are 

capable  of  providing  insights  into  the  molecular  activity/reactivity  and  properties. 

However, it becomes a daunting task to find out the appropriate molecular descriptors for 

a  given  physical/chemical/biological  property.  Our  aim  is  to  provide  with  a  simple 

descriptor, which does not need any large scale computation. We propose that the number 

of atoms in a molecule should serve that purpose. The rationale behind our prognosis is 

as follows. For a given group of molecules of similar structure the number of atoms will 

roughly scale as the number of electrons (N). It will also provide a rough estimate of the 

molecular volume (geometry) and hence the external potential (

)(rv r ). Since N and 

)(rv r  

fix the Hamiltonian of the system they will provide the wave function and accordingly all 

properties. 

 

In  order  to  verify  our  prognosis  we  select  some  recently  studied  systems.  We 

provide a QSPR protocol to use the number of atoms as the descriptor of boiling points of 

alcohol, enthalpy of vaporization of polychlorinated biphenyls (PCBs), n- octanol / water 

partition  coefficients  of  PCBs  and  chloroanisoles  and  pKa  values  for  carboxylic  acids, 

phenols  and  alcohols.  Since  electrophilicity  [1,  2]  has  been  shown  to  be  a  reliable 

descriptor for these properties we also analyze the associated two- parameter (number of 

atoms and electrophilicity) QSPR models. 

 

3

 

 
 

 

 

 

 

QSPR Models for Boiling Points of Alcohols  

Various QSPR models based on connectivity indices have been proposed [3- 5] in 

recent times in estimating the boiling points of 58 aliphatic alcohols. We try to develop a 

model  based  on  just  the  number  of  carbon  atoms  (NC)  present  in  each  alcohol  as  the 

descriptor.  It  may  be  noted  that  no  computation  other  than  a  simple  atom  counting  is 

needed to obtain our model. 

Table 1 compares the experimental boiling points of 58 aliphatic alcohols with the 

corresponding  quantities  calculated  using  NC  as  the  sole  descriptor.  Figure  1  shows  the 

associated regression with R2 = 0.864, internal predictive ability (R2

CV) = 0.853 and R2

Ad 

= 0.862. Considering the simplicity of the model it is unbelievable. 

In order to improve upon this model we include electrophilicity (ω) [1,2] as well 

so that we have a two-parameter model. Conceptual density functional theory [6-8] based 

reactivity  descriptors  like  electronegativity  (χ)  [9,  10],  hardness  (η)  [11,12]  and 

electrophilicity (ω =

) [1, 2] have been shown to be very useful in illucidating various 

2
χ
2
η

aspects  of  structure,  properties,  reactivity  and  interactions  [2,  6-8].  Here  we  use  the 

following formula for the calculation of (ω): 

                                                    

ω

=

2
χ
2
η

 

 

 

 

         



2

1 (
4 (

I A
)
+
I A
)
−



(
∈
1
HOMO
4 (
∈

LUMO

+ ∈
− ∈

LUMO

HOMO

2

)
)

        

(1) 

where I, A, ЄHOMO  and ЄLUMO  are ionization potential, electron affinity, energy of the 

highest occupied molecular orbital and energy of the lowest unoccupied molecular orbital 

4

respectively.  Necessary  quantities  are  calculated  within  a  B3LYP/6-31+G  (d)  level  of 

theory. 

Table 1 presents the calculated boiling points for this two parameter QSPR model 

using NC, and ω as the descriptors, whereas Figure 2 highlights the beautiful correlation 

with R2 = 0.869, R2

CV = 0.858 and R2

Ad = 0.867. 

QSPR Models for Enthalpy of Vaporization of PCBs 

Since  the  number  of  carbon  atoms  in  209  PCB  congeners  (See  the  template  in 

Table  2)  remains  same  we  use  the  number  of  non-hydrogenic  atoms  (NNH)  as  the 

descriptor for the enthalpy of vaporization of these PCB molecules [13-16]. Experimental 

vap HΔ

m

  values  are  available  in  two  references  [14,  15]  and  two  different  models  are 

proposed based on those values as was done in reference 13. Tables 2 and 3 present the 

experimental  and  calculated 

vap HΔ

m

  values  for  17  and  27  congeners  with  R2,  R2

(CV), 

R2

(Ad)  values  as  0.908,  0.866,  0.902  and  0.853,  0.832,  0.847  respectively.  Related  plots 

are  provided  in  Figures  3  and  4.  Corresponding  two  parameter  models  are  developed 

using NNH and electrophilicity (ω) values. Necessary ω values are taken from reference 

13.  As  is  evidenced  from  Tables  2,  3  and  Figures  3,  4  there  exist  beautiful  linear 

correlations with R2, R2

 (CV), R2

(Ad) values as 0.951, 0.935, 0.948 and 0.856, 0.836, 0.851 

respectively. 

Tables 4, 5 and Figure 5 provide the predicted 

vap HΔ

m

 values through the QSPR 

models  presented  above,  for  the  remaining  PCBs  for  which  the  corresponding 

experimental values are not known. These values compare very well with other reported 

literature values [13, 16]. 

 

 

 

 

 

5

 

 

 

 

 

 

QSPR  Models  for  n-  Octanol/Water  Partition  Coefficients  of  PCBs  and 

Chloroanisoles 

There  have  been  several  attempts  to  develop  QSPR  models  for  the  lipophilic 

behavior of PCBs [17] and chloroanosoles [18]. In the present work we provide one and 

two-parameter models with NNH and (NNH, ω) as descriptors. Required ω values are taken 

from references 17 and 18. 

Lipophilicity of PCBs 

From a data set of 133 PCB congeners a training set containing 100 molecules is 

formed. Both single and two-parameter models are used to calculate the log P values of 

100  PCBs,  which  are  compared  with  the  available  experimental  values  taken  from 

references 19 and 20. Figure 6 depicts the beautiful correlation with R2, R2

 (CV), R2

 (Ad) as 

0.832,  0.824,  0.830  and  0.905,  0.900,  0.905  respectively  for  NNH  and  (NNH,  ω)  as 

descriptors. These regression models are then used to predict the log P values of 33 PCBs 

constituting the test set. Table 7 and Figure 7 highlight the reliability and robustness of 

these models through the respective regression coefficients R2, R2

 (CV), R2

 (Ad) being 0.873, 

0.856,  0.869  and  0.906,  0.891,  0.903  respectively  for  one  (NNH)-  and  two  (NNH,  ω)- 

parameter  models.  This  fact  indirectly  provides  a  justification  for  log  P  itself  being  a 

suitable  QSAR/QSPR  descriptor.  For  the  whole  data  set  of  133  PCB  congeners  these 

values are (Table 8, Figure 8), 0.842. 0.836, 0.841 and 0.906, 0.906, 0.906 respectively 

for one (NNH)- and two (NNH, ω)- parameter models. 

6

Lipophilicity of Chloroanisoles 

Several  QSPR  studies  [18]  have  been  carried  out  in  order  to  estimate  the  log  P 

values  for  chloroanisoles.  In  this  work  we  try  to  achieve  the  same  with  one-  and  two- 

parameter QSPR models respectively with NNH and (NNH, ω) as the descriptors. 

Table 9 compares the experimental log P values (Reference 21) of chloroanisoles 

with  the  corresponding  values  calculated  using  NNH  as  well  as  (NNH,  ω)  as  descriptors. 

The R2, R2

 (CV), R2

 (Ad) values (Table 9, Figure 9) are 0.927, 0.914, 0.923 and 0.928, 0.914, 

0.924 respectively for one and two-parameter models. Unlike the case of PCBs there is 

very  little  improvement  in  going  from  a  single  parameter  to  a  two-parameter  case.  The 

reason is the presence of a strong inter-correlation between NNH and ω with R2, R2

 (CV), R2

 

(Ad) as 0.957, 0.949, 0.955 (not shown here). 

QSPR Models for pKa Prediction  

Group Philicity [22] has been found to be a reliable descriptor for pKa prediction. 

It is calculated as the condensed philicity [23] summed over a group of relevant atoms as  

                                                    

 

 

 

(2) 

α
 
ω
g

n

= ∑

k

1
=

.
ω

f

α
k

 

 

where  α
kf

  is  the  condensed  Fukui  function  on  the  atom  k  and  α  =  +,  -,  0  represents 

nucleophilic,  electrophilic  and  radical  attacks  respectively.  For  the  present  work  the 

required 

gω   values  are  taken  from  reference  22  while  the  experimental  pKa  values  are 

+

taken  from  references  24-26.Table  10  presents  the  experimental  pKa  values  for  three 

different sets of molecules comprising carboxylic acid, substituted phenols and alcohols 

 

 

 

 

 

7

along  with  their  pKa  values  estimated  in  terms  of  NC  and  (NC, 

+

gω )  via  separate 

regressions  for  three  sets.  Figure  10  provides  the  linear  correlation  between  the 

experimental and calculated pKa values. The correlation is very good with R2, R2

 (CV), R2

 

(Ad)  being  0.9604,  0.9558,  0.9596  and  0.9906,  0.9895,  0.9904  respectively  for  the  one 

(NC)- and two (NC, 

gω )- parameter models. It is worth mentioning that in both the plots 

+

the slope is unity and the intercept is close to zero, as expected. Further work related to 

toxicity and and biological activity is in progress in our laboratory. 

Conclusions 

The number of atoms in a molecule can be considered to be a valid descriptor in a 

QSPR model. Very high coefficient of determination (R2), leave-one-out cross-validated 

squared correlation coefficient (R2

 CV) and squared adjusted correlation coefficient (R2

Ad) 

values  associated  with  the  QSPR  models  for  estimating  a  variety  of  properties 

encompassing boiling points of alcohols, enthalpy of vaporization of PCBs, lipophilicity 

of  PCBs  and  chloroanisoles  and  pKa  values  for  carboxylic  acids,  phenols,  and  alcohols 

etc. highlight the reliability and robustness of these models and importance of a simple 

descriptor  like  the  number  of  carbon/non-hydrogenic  atoms  in  a  molecule.  Inclusion  of 

electrophilicity or its local variant provides further improvement and a very versatile two- 

parameter QSPR model results. 

Acknowledgements 

We thank BRNS, Mumbai for financial assistance and Mr. J. Padmanabhan and 

Mr. R. Parthasarathi for their help in various ways. 

8

 

 

 

 

 

References 

 

[1]  R.G. Parr, L.V. Szentpaly, S. Liu, J. Am. Chem. Soc. 1999, 121,1922–1924 

[2]  P. K. Chattaraj, U. Sarkar, D. R. Roy, Chem. Rev. 2006, 106, 2065-2091. 

[3]  M. Randic, M. Pompe, D. Mills, S. C. Basak, Molecules 2004, 9, 1177–1193 

[4]  G. Krenkel, E. Castro, A. A. Toropov, J. Mol. Struct. (THEOCHEM) 2001, 542, 

[5]  D.  Janežic,  B.  Lucic  ,  S.  Nikolic,  A.  Milicevic,  N.  Trinajstic,  Int.  Electron.  J. 

107–113. 

Mol. Des. 2006, 5 (4), 192–200 

[6]  R.  G.  Parr,  W.  Yang,  Density  Functional  Theory  of  Atoms  and  Molecules; 

Oxford University Press, Oxford, 1989. 

[7]  P. Geerlings, F. De Proft, W. Langenaeker, Chem. Rev. 2003,103, 1793-1874. 

[8]  Special  Issue  of  J.  Chem.  Sci.  on  Chemical  Reactivity,  2005,  Vol.  117,  Guest 

[9]  R.  G.  Parr,  D.  A.  Donnelly,  M.  Levy,  W.  E.  Palke,  J.  Chem.  Phys.  1978,  68, 

[10]  K. D. Sen, C. K. Jorgenson, Structure and Bonding, Vol. 66: Electronegativity; 

[11]  R. G. Parr, R. G. Pearson, J. Am. Chem. Soc. 1983, 105, 7512-7516 

[12]  R.  G.  Pearson,  Chemical  Hardness:  Applications  from  Molecules  to  Solids; 

Editor: P. K. Chattaraj. 

3801-3807. 

Eds; Springer: Berlin, 1987. 

Wiley-VCH: Weinheim, 1997. 

Comb. Sci. 2006 (In Press) 

[13]  J.Padmanabhan,  R.  Parthasarathi,  V.  Subramanian,  P.  K.  Chattaraj,  QSAR  & 

[14]  S. Puri, J. S. Chickos, W. J. Welsh, Anal. Chem. 2001, 73, 1480 – 1484. 

 

9

[15]  K.  Nakajoh,  E.  Shibata,  T.  Todoroki,  A.  Ohara,  K.  Nishizawa,  T.  Nakamura, 

Environ. Toxicol. Chem. 2006, 25,327- 336. 

[16]  S. Puri, J. S. Chickos, W. J. Welsh, J. Chem. Inf. Comput. Sci. 2002, 42, 299 – 

[17]  J.  Padmanabhan,  R.  Parthasarathi,  V.  Subramanian,  P.  K.  Chattaraj,  Bioorg. 

Med. Chem. 2006, 14, 1021–1028 and references therein. 

[18]  J.  Padmanabhan,  R.  Parthasarathi,  V.  Subramanian,  P.  K.  Chattaraj,  J.  Mol. 

Struct. (THEOCHEM) 2006 (In Press) and references therein. 

[19]  G. S. Patil, Chemosphere 1991, 22, 723-738. 

[20]  M. Makino, Chemosphere 1998, 37, 13-26. 

[21]  P.  Oliver,  L.  Ursula,  B.  Karlheinz,  Fresenius  J.  Anal.  Chem.  2001,  371,  598-

[22]  R. Parthasarathi, J. Padmanabhan, M. Elango, K. Chitra, V. Subramanian, P. K. 

Chattaraj, J. Phys. Chem. A 2006, 110, 6540-6544 

[23]  P. K. Chattaraj, B. Maiti, U. Sarkar, J. Phys. Chem. A. 2003, 107, 4973-4975. 

[24]  L. A. Eriksson, R. Berglind, M. Sjostrom, Chemom. Intell. Lab. Syst. 1994, 23, 

304. 

606. 

235-245. 

[25]  D. D. Perrin, B. Dempsey, E. P. Serjeant, pKa Prediction for Organic Acids and 

Bases, Chapman and Hall: New York, 1981. 

[26]  M. J. Citra, Chemosphere 1999, 38, 191-206. 

 

 

 

 

10

Table 1. QSPR models for boiling points of 58 aliphatic alcohols. 

Alcohols 

 Methanol 
 Ethanol 
1-Propanol 
1-Butanol 
1-Pentanol 
1-Hexanol 
1-Heptanol 
1-Octanol 
1-Nonanol 
1-Decanol 
2-Propanol 
2-Butanol 
2-Pentanol 
2-Hexanol 
2-Octanol 
2-Nonanol 
3-Pentanol 
3-Hexanol 
3-Heptanol 
4-Heptanol 
3-Nonanol 
4-Nonanol 
5-Nonanol 
2-M-1-Propanol 
2-M-2-Propanol 
2-M-1-Butanol 
2-M-2-Butanol 
3-M-1-Butanol 
3-M-2-Butanol 
2-M-1-Pentanol 
3-M-1-Pentanol 
4-M-1-Pentanol 
2-M-2-Pentanol 
3-M-2-Pentanol 
4-M-2-Pentanol 
2-M-3-Pentanol 
3-M-3-Pentanol 
2-M-2-Hexanol 
3-M-3-Hexanol 
7-M-1-Octanol 
2-E-1-Butanol 
3-E-3-Pentanol 
2-E-1-Hexanol 
2,2-M-M-1-Propanol 
2,2-M-M-1-Butanol 

ω 
(eV) 
 

Exptl* 

1.911 
1.806 
1.862 
1.789 
1.896 
1.790 
1.790 
1.788 
1.902 
1.903 
1.747 
1.720 
1.692 
1.691 
1.687 
1.686 
1.833 
1.798 
1.775 
1.793 
1.787 
1.796 
1.767 
1.863 
1.895 
1.867 
1.886 
1.823 
1.780 
1.921 
1.918 
1.903 
1.863 
1.777 
1.802 
1.823 
1.882 
1.864 
1.850 
1.793 
1.811 
1.879 
1.834 
1.925 
1.883 

64.7 
78.3 
97.2 
117 
137.8 
157 
176.3 
195.2 
213.1 
230.2 
82.3 
99.6 
119 
139.9 
179.8 
198.5 
115.3 
135.4 
156.8 
155 
194.7 
193 
195.1 
107.9 
82.4 
128.7 
102 
131.2 
111.5 
148 
152.4 
151.8 
121.4 
134.2 
131.7 
126.6 
122.4 
142.5 
142.4 
206 
146.5 
142.5 
184.6 
113.1 
136.8 

Boiling Point 
Calcda 
(NC) 
49.422 
67.087 
84.753 
102.418 
120.084 
137.749 
155.415 
173.080 
190.746 
208.411 
84.753 
102.418 
120.084 
137.749 
173.080 
190.746 
120.084 
137.749 
155.415 
155.415 
190.746 
190.746 
190.746 
102.418 
102.418 
120.084 
120.084 
120.084 
120.084 
137.749 
137.749 
137.749 
137.749 
137.749 
137.749 
137.749 
137.749 
155.415 
155.415 
190.746 
137.749 
155.415 
173.080 
120.083 
137.749 

Calcdb 
(ω, NC) 
46.789 
68.543 
83.916 
104.434 
117.761 
139.591 
157.193 
174.856 
187.951 
205.498 
88.498 
107.169 
125.886 
143.533 
178.866 
196.508 
120.269 
139.268 
157.779 
157.045 
192.520 
192.158 
193.296 
101.502 
100.225 
118.924 
118.188 
120.660 
122.386 
134.365 
134.485 
135.075 
136.701 
140.093 
139.120 
138.281 
135.909 
154.242 
154.782 
192.255 
138.749 
153.629 
173.016 
116.609 
135.879 

 

 

 

11

2,3-M-M-1-Butanol 
3,3-M-M-1-Butanol 
2,3-M-M-2-Butanol 
3,3-M-M-2-Butanol 
2,3-M-M-2-Pentanol 
3,3-M-M-2-Pentanol 
2,2-M-M-3-Pentanol 
2,4-M-M-3-Pentanol 
2,6-M-M-4-Heptanol 
2,3-M-M-3-Pentanol 
3,5-M-M-4-Heptanol 
2,2,3-M-M-M-3-Pentanol 
3,5,5-M-M-M-1-Hexanol 

1.874 
1.882 
1.882 
1.858 
1.869 
1.849 
1.907 
1.893 
1.914 
1.911 
1.837 
1.886 
1.852 

137.749 
137.749 
137.749 
137.749 
155.415 
155.415 
155.415 
155.415 
190.746 
155.415 
190.746 
173.080 
190.746 

136.229 
135.930 
135.924 
136.874 
154.028 
154.849 
152.530 
153.085 
187.473 
152.378 
190.499 
170.979 
189.921 

*Experimental data taken from References [3, 4, 5]. 
aCalculated boiling point  values using one parameter (NC) regression. 
bCalculated boiling point  values using two parameter (ω, NC) regression. 

149 
143 
118.6 
120 
139.7 
133 
136 
138.8 
178 
139 
187 
152.2 
193 

 

 + 31.756
Calc. bp = 17.666* N
C

240

220

200

180

160

140

120

100

80

60

i

t
n
o
p
 
g
n

i
l
i

o
b
 
l
a
t
n
e
m

i
r
e
p
x
E

 

R2=0.864;  R2
=0.862; R2
          SD=13.262;  N=58

Ad

=0.853 

CV

40

60

100

80
Calculated boiling point

120

140

160

180

200

220

                  
Figure 1: Experimental vs calculated boiling points with NC for the complete set of 58 
aliphatic alcohols. 
 
 

 

 

 

12

240

220

200

180

160

140

120

100

80

60

i

t
n
o
p
 
g
n

i
l
i

o
b
 
 
l
a
t
n
e
m

i
r
e
p
x
E

 

 + 105.112
Calc.(bp) = - 39.876*ω + 17.599*N
C

 

R2=0.869  R2

=0.867  R2

=0.858

Ad

CV
SD=13.010  N=58

40

60

100

80
120
160
Calculated boiling point

140

180

200

220

 

               
Figure 2: Experimental vs calculated boiling points with NC, ω for the complete set of 58 
aliphatic alcohols 
 
Regression Equations: 
 
Parameters 
    One  
    Two  
 
 

                            Regression Equations 
Calc. (bp) = 17.666* NC + 31.756 
Calc. (bp) = - 39.876*ω + 17.599*NC + 105.112 

R2 
0.864 
0.869 

R2 
0.853 
0.858 

(CV)  R2 

(Ad) 
0.862 
0.867 

 

 

 

 

 

 

 

 

 

 

 

                                     
 

13

Table 2. Enthalpy of vaporization for the data set of 17 Polychlorinated Biphenyls 
 

X2
X
6'

X
5'

 

X3

X
4

X

4'

 

X
5

X X
2'
6

X
3'

     
                                   
                                 X, X′=H, or Cl 

                                         Geometry of biphenyl template with atom numbering       
       
                        

Exptl* 

(ΔvapHm (298.15 K) 
Calcda 
(NNH) 
65.21 
71.28 
71.28 
71.28 
77.34 
77.34 
77.34 
77.34 
83.41 
89.48 
89.48 
95.54 
95.54 
95.54 
101.60 
101.60 
107.70 

64.5± 2.2 
72.1± 2.0 
74.3± 1.1 
71.6± 0.7 
75.4± 1.5 
76.8± 0.4 
81± 0.2 
81.4± 0.3 
80.2± 0.9 
87.4± 0.8 
84.9± 0.6 
92.3± 0.6 
89.6± 0.2 
91.6± 0.5 
103.5± 0.1 
112.6± 0.4 
109.1± 0.0 

Calcdb 
(ω, NNH) 
62.45 
71.88 
70.57 
70.57 
80.66 
80.00 
82.62 
76.73 
82.23 
87.73 
85.11 
93.89 
91.92 
95.20 
101.40 
107.20 
108.20 

IUPAC 
No 

Compounds 

ω 

0.077 
0.087 
0.085 
0.085 
0.096 
0.095 
0.099 
0.090 
0.094 
0.098 
0.094 
0.103 
0.100 
0.105 
0.110 
0.119 
0.116 

Biphenyl 
2-Chlorobiphenyl 
3-Chlorobiphenyl 
4-Chlorobiphenyl 
2,4-Dichlorobiphenyl 
2,5-Dichlorobiphenyl 
3,3’-Dichlorobiphenyl 
4,4’-Dichlorobiphenyl 
2,2’,5-Trichlorobiphenyl 
2,2’,4,5’-Tetrachlorobiphenyl 
2,2’,5,6’-Tetrachlorobiphenyl 
2,2’,3,5’,6-Pentachlorobiphenyl 
2,2’,3,6,6’-Pentachlorobiphenyl 
2,2’,4,5’,6-Pentachlorobiphenyl 
2,2’,4,4’,5,5’-Hexachlorobiphenyl 
2,3,3’,4,4’,5-Hexachlorobiphenyl 
2,2’,3,3’,4,4’,6-Heptachlorobiphenyl 

 
1 
2 
3 
7 
9 
11 
15 
18 
49 
53 
95 
96 
103 
153 
156 
171 
* Experimental values taken from Reference [14]. 
aCalculated ΔvapHm using one parameter (NNH) regression. 
bCalculated ΔvapHm using two parameter (ω, NNH) regression. 
 
 
 
 
 
 
 
 

 

14

 
Table 3. Enthalpy of vaporization for the data set of 27 Polychlorinated Biphenyls 
 

Exptl * 

(ΔvapHm (298.15 K) 
Calcda 
(NNH) 
58.36±3.58  62.83 
71.27±1.09  72.90 
75.75±1.47  72.90 
79.17±1.15  72.90 
73.45±1.69  77.94 
76.25±1.18  77.94 
76.45±3.38  77.94 
79.44±0.86  77.94 
83.57±1.40  77.94 
81.55±1.94  77.94 
83.26±4.26  82.98 
81.28±0.47  82.98 
78±2.59 
82.98 
83.41±2.28  82.98 
83.47±1.85  82.98 
82.95±4.05  88.02 
82.81±4.22  88.02 
87.11±4.64  88.02 
89.58±1.45  88.02 
87.03±3.88  88.02 
95.38±2.92  88.02 
94.46±0.88  93.06 
90.01±3.13  93.06 
99.38±4.16  93.06 
97.38±2.15  98.10 
95.56±1.79  98.10 
99.37±2.54  98.10 

Calcdb 
(ω,NNH) 
62.32 
72.24 
72.37 
72.75 
77.77 
77.64 
78.41 
78.67 
78.03 
78.41 
82.41 
82.41 
83.82 
83.69 
84.33 
87.56 
87.82 
87.95 
87.95 
88.97 
88.20 
93.22 
92.46 
92.84 
97.99 
97.61 
97.86 

IUPAC 
No 

Compounds 

 
ω 

0.077 
Biphenyl 
0.086 
2,2’-Dichlorobiphenyl 
0.087 
2,4’-Dichlorobiphenyl 
0.090 
4,4’-Dichlorobiphenyl 
0.095 
2,2’,4-Trichlorobiphenyl 
0.094 
2,2’,5-Trichlorobiphenyl 
0.100 
2,3,4’-Trichlorobiphenyl 
0.102 
2,4,4’-Trichlorobiphenyl 
0.097 
2,4’,5-Trichlorobiphenyl 
0.100 
2,3’,4’-Trichlorobiphenyl 
0.097 
2,2’,3,5’-Tetrachlorobiphenyl 
0.097 
2,2’,5,5’-Tetrachlorobiphenyl 
0.108 
2,3’,4,4’-Tetrachlorobiphenyl 
0.107 
2,3’,4’,5-Tetrachlorobiphenyl 
0.112 
3,3’,4,4’-Tetrachlorobiphenyl 
0.103 
2,2’,3,5’,6-Pentachlorobiphenyl 
0.105 
2,2’,3,4’,6’-Pentachlorobiphenyl 
0.106 
2,2’,4,5,5’-Pentachlorobiphenyl 
0.106 
2,3,3’,4’,6-Pentachlorobiphenyl 
0.114 
2,3’,4,4’,5-Pentachlorobiphenyl 
0.108 
3,3’,4,4’,5-Pentachlorobiphenyl 
0.113 
2,2’,3,4,4’,5-Hexachlorobiphenyl 
0.107 
2,2’,3,4’,5’,6-Hexachlorobiphenyl 
2,2’,4,4’,5,5’-Hexachlorobiphenyl 
0.110 
2,2’, 3,3’, 4,4’,5-Heptachlorobiphenyl  0.116 
2,2’, 3,3’, 4,5,6’-Heptachlorobiphenyl  0.113 
2,2’, 3,4,4’, 5,5’-Heptachlorobiphenyl  0.115 

 
4 
8 
15 
17 
18 
22 
28 
31 
33 
44 
52 
66 
70 
77 
95 
98 
101 
110 
118 
126 
137 
149 
153 
170 
174 
180 
*Experimental values taken from reference [15]. 
aCalculated ΔvapHm using one parameter (NNH) regression. 
bCalculated ΔvapHm using two parameter (ω, NNH) regression. 
 
 
 
 
 
 
 
 
 
 
 
 

 

15

Table 4. Predicted (ΔvapHm (298.15 K)) for 193 PCBs using regression from 17 PCBs 
 

IUPAC 
No 

Compounds 

2,2’-Dichlorobiphenyl 
2,3-Dichlorobiphenyl 
2,3’-Dichlorobiphenyl 
2,4’-Dichlorobiphenyl 
2,6-Dichlorobiphenyl 
3,4-Dichlorobiphenyl 
3,4’-Dichlorobiphenyl 
3,5-Dichlorobiphenyl 
2,2’,3-Trichlorobiphenyl 
2,2’,4-Trichlorobiphenyl 
2,2’,6-Trichlorobiphenyl 
2,3,3’-Trichlorobiphenyl 
2,3,4-Trichlorobiphenyl 
2,3,4’-Trichlorobiphenyl 
2,3,5-Trichlorobiphenyl 
2,3,6-Trichlorobiphenyl 
2,3’,4-Trichlorobiphenyl 
2,3’,5-Trichlorobiphenyl 
2,3’,6-Trichlorobiphenyl 
2,4,4’-Trichlorobiphenyl 
2,4,5-Trichlorobiphenyl 
2,4,6-Trichlorobiphenyl 
2,4’,5-Trichlorobiphenyl 
2,4’,6-Trichlorobiphenyl 
2,3’,4’-Trichlorobiphenyl 
2,3’,5’-Trichlorobiphenyl 
3,3’,4-Trichlorobiphenyl 
3,3’,5-Trichlorobiphenyl 
3,4,4’-Trichlorobiphenyl 
3,4,5-Trichlorobiphenyl 
3,4’,5-Trichlorobiphenyl 
2,2’,3,3’-Tetrachlorobiphenyl 
2,2’,3,4-Tetrachlorobiphenyl 
2,2’,3,4’-Tetrachlorobiphenyl 
2,2’,3,5-Tetrachlorobiphenyl 
2,2’,3,5’-Tetrachlorobiphenyl 
2,2’,3,6-Tetrachlorobiphenyl 
2,2’,3,6’-Tetrachlorobiphenyl 
2,2’,4,4’-Tetrachlorobiphenyl 
2,2’,4,5-Tetrachlorobiphenyl 
2,2’,4,6-Tetrachlorobiphenyl 
2,2’,4,6’-Tetrachlorobiphenyl 
2,2’,5,5’-Tetrachlorobiphenyl 
2,2’,6,6’-Tetrachlorobiphenyl 
2,3,3’,4-Tetrachlorobiphenyl 
2,3,3’,4’-Tetrachlorobiphenyl 
2,3,3’,5-Tetrachlorobiphenyl 
2,3,3’,5’-Tetrachlorobiphenyl 

4 
5 
6 
8 
10 
12 
13 
14 
16 
17 
19 
20 
21 
22 
23 
24 
25 
26 
27 
28 
29 
30 
31 
32 
33 
34 
35 
36 
37 
38 
39 
40 
41 
42 
43 
44 
45 
46 
47 
48 
50 
51 
52 
54 
55 
56 
57 
58 

 

ω 

0.086 
0.094 
0.094 
0.087 
0.091 
0.099 
0.099 
0.099 
0.092 
0.095 
0.092 
0.100 
0.102 
0.100 
0.102 
0.100 
0.102 
0.101 
0.094 
0.102 
0.103 
0.102 
0.097 
0.094 
0.100 
0.093 
0.106 
0.096 
0.106 
0.106 
0.106 
0.096 
0.101 
0.099 
0.101 
0.097 
0.100 
0.095 
0.100 
0.102 
0.102 
0.096 
0.097 
0.093 
0.107 
0.105 
0.107 
0.098 

(ΔvapHm (298.15 K) 
   Calcda     
    (NNH) 
77.34 
77.34 
77.34 
77.34 
77.34 
77.34 
77.34 
77.34 
83.41 
83.41 
83.41 
83.41 
83.41 
83.41 
83.41 
83.41 
83.41 
83.41 
83.41 
83.41 
83.41 
83.41 
83.41 
83.41 
83.41 
83.41 
83.41 
83.41 
83.41 
83.41 
83.41 
89.48 
89.48 
89.48 
89.48 
89.48 
89.48 
89.48 
89.48 
89.48 
89.48 
89.48 
89.48 
89.48 
89.48 
89.48 
89.48 
89.48 

  Calcdb 
(ω, NNH) 
74.11 
79.35 
79.35 
74.76 
77.38 
82.62 
82.62 
82.62 
80.92 
82.88 
80.92 
86.16 
87.47 
86.16 
87.47 
86.16 
87.47 
86.81 
82.23 
87.47 
88.12 
87.47 
84.19 
82.23 
86.16 
81.57 
90.09 
83.54 
90.09 
90.09 
90.09 
86.42 
89.69 
88.38 
89.69 
87.07 
89.04 
85.76 
89.04 
90.35 
90.35 
86.42 
87.07 
84.45 
93.62 
92.31 
93.62 
87.73 

c 
ΔvapHm

72.6 
73.4 
77.8 
76.5 
80.6 
79.5 
82 
81.4 
79.9 
81.6 
81 
93.7 
88.6 
81 
90.1 
89.2 
93.2 
89.4 
80.7 
89.3 
82.9 
91.1 
91.2 
82.9 
88.3 
83.3 
90.1 
85.7 
91.1 
89.2 
86.8 
94.7 
90.5 
95.2 
86.3 
84.4 
80.5 
85.9 
90.3 
90.8 
81.2 
86.5 
84.5 
79.4 
102.8 
99.7 
96.1 
101.9 

16

2,3,3’,6-Tetrachlorobiphenyl 
2,3,4,4’-Tetrachlorobiphenyl 
2,3,4,5-Tetrachlorobiphenyl 
2,3,4,6-Tetrachlorobiphenyl 
2,3,4’,5-Tetrachlorobiphenyl 
2,3,4’,6-Tetrachlorobiphenyl 
2,3,5,6-Tetrachlorobiphenyl 
2,3’,4,4’-Tetrachlorobiphenyl 
2,3’,4,5-Tetrachlorobiphenyl 
2,3’,4,5’-Tetrachlorobiphenyl 
2,3’,4,6-Tetrachlorobiphenyl 
2,3’,4’,5-Tetrachlorobiphenyl 
2,3’,4’,6-Tetrachlorobiphenyl 
2,3’,5,5’-Tetrachlorobiphenyl 
2,3’,5’,6-Tetrachlorobiphenyl 
2,4,4’,5-Tetrachlorobiphenyl 
2,4,4’,6-Tetrachlorobiphenyl 
2,3’,4’,5’-Tetrachlorobiphenyl 
3,3’,4,4’-Tetrachlorobiphenyl 
3,3’,4,5-Tetrachlorobiphenyl 
3,3’,4,5’-Tetrachlorobiphenyl 
3,3’,5,5’-Tetrachlorobiphenyl 
3,4,4’,5-Tetrachlorobiphenyl 
2,2’,3,3’,4-Pentachlorobiphenyl 
2,2’,3,3’,5-Pentachlorobiphenyl 
2,2’,3,3’,6-Pentachlorobiphenyl 
2,2’,3,4,4’-Pentachlorobiphenyl 
2,2’, 3,4,5-Pentachlorobiphenyl 
2,2’, 3,4,5’-Pentachlorobiphenyl 
2,2’, 3,4,6-Pentachlorobiphenyl 
2,2’,3,4,6’-Pentachlorobiphenyl 
2,2’,3,4’,5-Pentachlorobiphenyl 
2,2’,3,4’,6-Pentachlorobiphenyl 
2,2’,3,5,5’-Pentachlorobiphenyl 
2,2’,3,5,6-Pentachlorobiphenyl 
2,2’,3,5,6’-Pentachlorobiphenyl 
2,2’,3,4’,5’-Pentachlorobiphenyl 
2,2’,3,4’,6’-Pentachlorobiphenyl 
2,2’,4,4’,5-Pentachlorobiphenyl 
2,2’,4,4’,6-Pentachlorobiphenyl 
2,2’,4,5,5’-Pentachlorobiphenyl 
2,2’,4,5,6’-Pentachlorobiphenyl 
2,2’,4,6,6’-Pentachlorobiphenyl 
2,3,3’,4,4’-Pentachlorobiphenyl 
2,3,3’,4,5-Pentachlorobiphenyl 
2,3,3’,4’,5-Pentachlorobiphenyl 
2,3,3’,4,5’-Pentachlorobiphenyl 
2,3,3’,4,6-Pentachlorobiphenyl 
2,3,3’,4’,6-Pentachlorobiphenyl 
2,3,3’,5,5’-Pentachlorobiphenyl 
2,3,3’,5,6-Pentachlorobiphenyl 
2,3,3’,5’,6-Pentachlorobiphenyl 
2,3,4,4’,5-Pentachlorobiphenyl 

59 
60 
61 
62 
63 
64 
65 
66 
67 
68 
69 
70 
71 
72 
73 
74 
75 
76 
77 
78 
79 
80 
81 
82 
83 
84 
85 
86 
87 
88 
89 
90 
91 
92 
93 
94 
97 
98 
99 
100 
101 
102 
104 
105 
106 
107 
108 
109 
110 
111 
112 
113 
114 

 

0.104 
0.107 
0.109 
0.108 
0.107 
0.104 
0.108 
0.108 
0.109 
0.102 
0.105 
0.107 
0.097 
0.101 
0.098 
0.106 
0.104 
0.102 
0.112 
0.105 
0.101 
0.100 
0.112 
0.105 
0.104 
0.103 
0.105 
0.109 
0.104 
0.109 
0.102 
0.105 
0.104 
0.104 
0.108 
0.101 
0.106 
0.105 
0.107 
0.106 
0.106 
0.103 
0.103 
0.112 
0.114 
0.112 
0.108 
0.112 
0.106 
0.108 
0.112 
0.107 
0.112 

89.48 
89.48 
89.48 
89.48 
89.48 
89.48 
89.48 
89.48 
89.48 
89.48 
89.48 
89.48 
89.48 
89.48 
89.48 
89.48 
89.48 
89.48 
89.48 
89.48 
89.48 
89.48 
89.48 
95.54 
95.54 
95.54 
95.54 
95.54 
95.54 
95.54 
95.54 
95.54 
95.54 
95.54 
95.54 
95.54 
95.54 
95.54 
95.54 
95.54 
95.54 
95.54 
95.54 
95.54 
95.54 
95.54 
95.54 
95.54 
95.54 
95.54 
95.54 
95.54 
95.54 

91.66 
93.62 
94.93 
94.28 
93.62 
91.66 
94.28 
94.28 
94.93 
90.35 
92.31 
93.62 
87.07 
89.69 
87.73 
92.97 
91.66 
90.35 
96.90 
92.31 
89.69 
89.04 
96.90 
95.20 
94.54 
93.89 
95.20 
97.82 
94.54 
97.82 
93.23 
95.20 
94.54 
94.54 
97.16 
92.58 
95.85 
95.20 
96.51 
95.85 
95.85 
93.89 
93.89 
99.78 
101.10 
99.78 
97.16 
99.78 
95.85 
97.16 
99.78 
96.51 
99.78 

89.8 
98.6 
93.8 
97.6 
94.1 
91.7 
97.8 
93 
96.6 
102.5 
90.3 
96.1 
92.8 
97.8 
90.2 
94.4 
92.4 
92.4 
97.8 
94.8 
99.7 
95.3 
95.8 
92.5 
91.7 
89.2 
100.2 
93.1 
99.6 
89 
88.6 
96 
89.2 
97 
88.5 
88.1 
96.3 
96.3 
102.3 
92.1 
95.6 
88.4 
86.3 
106.7 
106.9 
102.2 
100.9 
95.2 
97.6 
102 
94.7 
95.1 
107.1 

17

2,3,4,4’,6-Pentachlorobiphenyl 
2,3,4,5,6-Pentachlorobiphenyl 
2,3,4’,5,6-Pentachlorobiphenyl 
2,3’,4,4’,5-Pentachlorobiphenyl 
2,3’,4,4’,6-Pentachlorobiphenyl 
2,3’,4,5,5’-Pentachlorobiphenyl 
2,3’,4,5’,6-Pentachlorobiphenyl 
2,3,3’,4’,5’-Pentachlorobiphenyl 
2,3’,4,4’,5’-Pentachlorobiphenyl 
2,3’,4’,5,5’-Pentachlorobiphenyl 
2,3’,4’,5’,6-Pentachlorobiphenyl 
3,3’,4,4’,5-Pentachlorobiphenyl 
3,3’,4,5,5’-Pentachlorobiphenyl 
2,2’,3,3’,4,4’-Hexachlorobiphenyl 
2,2’,3,3’,4,5-Hexachlorobiphenyl 
2,2’,3,3’,4,5’-Hexachlorobiphenyl 
2,2’,3,3’,4,6-Hexachlorobiphenyl 
2,2’,3,3’,4,6’-Hexachlorobiphenyl 
2,2’,3,3’,5,5’-Hexachlorobiphenyl 
2,2’,3,3’,5,6-Hexachlorobiphenyl 
2,2’,3,3’,5,6’-Hexachlorobiphenyl 
2,2’,3,3’,6,6’-Hexachlorobiphenyl 
2,2’,3,4,4’,5-Hexachlorobiphenyl 
2,2’,3,4,4’,5’-Hexachlorobiphenyl 
2,2’,3,4,4’,6-Hexachlorobiphenyl 
2,2’,3,4,4’,6’-Hexachlorobiphenyl 
2,2’,3,4,5,5’-Hexachlorobiphenyl 
2,2’,3,4,5,6-Hexachlorobiphenyl 
2,2’,3,4,5,6’-Hexachlorobiphenyl 
2,2’,3,4,5’,6-Hexachlorobiphenyl 
2,2’,3,4,6,6’-Hexachlorobiphenyl 
2,2’,3,4’,5,5’-Hexachlorobiphenyl 
2,2’,3,4’,5,6-Hexachlorobiphenyl 
2,2’,3,4’,5,6’-Hexachlorobiphenyl 
2,2’,3,4’,5’,6-Hexachlorobiphenyl 
2,2’,3,4’,6,6’-Hexachlorobiphenyl 
2,2’,3,5,5’,6-Hexachlorobiphenyl 
2,2’,3,5,6,6’-Hexachlorobiphenyl 
2,2’,4,4’,5,6’-Hexachlorobiphenyl 
2,2’,4,4’,6,6’-Hexachlorobiphenyl 
2,3,3’,4,4’,5’-Hexachlorobiphenyl 
2,3,3’,4,4’,6-Hexachlorobiphenyl 
2,3,3’,4,5,5’-Hexachlorobiphenyl 
2,3,3’,4,5,6-Hexachlorobiphenyl 
2,3,3’,4,5’,6-Hexachlorobiphenyl 
2,3,3’,4’,5,5’-Hexachlorobiphenyl 
2,3,3’,4’,5,6-Hexachlorobiphenyl 
2,3,3’,4’,5’,6-Hexachlorobiphenyl 
2,3,3’,5,5’,6-Hexachlorobiphenyl 
2,3,4,4’,5,6-Hexachlorobiphenyl 
2,3’,4,4’,5,5’-Hexachlorobiphenyl 
2,3’,4,4’,5’,6-Hexachlorobiphenyl 
3,3’,4,4’,5,5’-Hexachlorobiphenyl 

115 
116 
117 
118 
119 
120 
121 
122 
123 
124 
125 
126 
127 
128 
129 
130 
131 
132 
133 
134 
135 
136 
137 
138 
139 
140 
141 
142 
143 
144 
145 
146 
147 
148 
149 
150 
151 
152 
154 
155 
157 
158 
159 
160 
161 
162 
163 
164 
165 
166 
167 
168 
169 

 

0.112 
0.114 
0.112 
0.114 
0.108 
0.110 
0.109 
0.106 
0.106 
0.105 
0.103 
0.108 
0.109 
0.109 
0.112 
0.108 
0.112 
0.107 
0.108 
0.111 
0.106 
0.103 
0.113 
0.109 
0.113 
0.109 
0.112 
0.114 
0.109 
0.112 
0.109 
0.110 
0.112 
0.108 
0.107 
0.106 
0.111 
0.108 
0.108 
0.108 
0.111 
0.115 
0.116 
0.118 
0.116 
0.111 
0.115 
0.110 
0.115 
0.118 
0.112 
0.112 
0.112 

95.54 
95.54 
95.54 
95.54 
95.54 
95.54 
95.54 
95.54 
95.54 
95.54 
95.54 
95.54 
95.54 
101.60 
101.60 
101.60 
101.60 
101.60 
101.60 
101.60 
101.60 
101.60 
101.60 
101.60 
101.60 
101.60 
101.60 
101.60 
101.60 
101.60 
101.60 
101.60 
101.60 
101.60 
101.60 
101.60 
101.60 
101.60 
101.60 
101.60 
101.60 
101.60 
101.60 
101.60 
101.60 
101.60 
101.60 
101.60 
101.60 
101.60 
101.60 
101.60 
101.60 

99.78 
101.10 
99.78 
101.10 
97.16 
98.47 
97.82 
95.85 
95.85 
95.20 
93.89 
97.16 
97.82 
100.70 
102.70 
100.00 
102.70 
99.39 
100.00 
102.00 
98.73 
96.77 
103.30 
100.70 
103.30 
100.70 
102.70 
104.00 
100.70 
102.70 
100.70 
101.40 
102.70 
100.00 
99.39 
98.73 
102.00 
100.00 
100.00 
100.00 
102.00 
104.60 
105.30 
106.60 
105.30 
102.00 
104.60 
101.40 
104.60 
106.60 
102.70 
102.70 
102.70 

97.4 
108 
96.9 
107.6 
102.2 
106.2 
99.7 
103.7 
104.4 
104.6 
96 
107.4 
104.4 
106 
99.3 
113.2 
96.6 
101.1 
96.8 
92.1 
97 
94.2 
105.3 
103.1 
102.5 
100.9 
106.2 
91 
94.6 
96.5 
92.3 
106.8 
98.3 
96.5 
97.1 
95.7 
92 
87.8 
96.9 
96.3 
117 
110.7 
111.4 
103.5 
108.4 
112.6 
106.7 
111.3 
104.2 
106 
112.2 
112.2 
112.2 

18

107.70 
107.70 
107.70 
107.70 
107.70 
107.70 
107.70 
107.70 
107.70 
107.70 
107.70 
107.70 
107.70 
107.70 
107.70 
107.70 
107.70 
107.70 
107.70 
107.70 
107.70 
107.70 
107.70 
113.70 
113.70 
113.70 
113.70 
113.70 
113.70 
113.70 
113.70 
113.70 
113.70 
113.70 
113.70 
119.80 
119.80 
119.80 
119.80 

108.20 
108.20 
109.50 
106.20 
107.50 
105.50 
106.90 
106.90 
104.90 
107.50 
110.10 
106.20 
107.50 
106.20 
109.50 
107.50 
106.90 
104.90 
110.10 
111.40 
110.10 
112.10 
109.50 
113.00 
114.30 
112.40 
111.00 
114.30 
111.70 
112.40 
110.40 
109.70 
114.30 
113.00 
116.90 
119.20 
117.90 
117.20 
119.20 

116 
117.2 
99.6 
103.3 
114.3 
100.8 
102.9 
105.5 
96.3 
111.9 
102 
102.8 
113.1 
102.2 
99.6 
94.5 
106 
97.9 
122.1 
115.7 
120.5 
113.5 
113.2 
119.6 
117.3 
111.4 
110.5 
108.1 
112.1 
102.8 
109.2 
104.7 
110.7 
104.4 
125.5 
119 
115.4 
114.9 
121.4 

0.116 
0.116 
0.118 
0.113 
0.115 
0.112 
0.114 
0.114 
0.111 
0.115 
0.119 
0.113 
0.115 
0.113 
0.118 
0.115 
0.114 
0.111 
0.119 
0.121 
0.119 
0.122 
0.118 
0.119 
0.121 
0.118 
0.116 
0.121 
0.117 
0.118 
0.115 
0.114 
0.121 
0.119 
0.125 
0.124 
0.122 
0.121 
0.124 

2,2’,3,3’,4,4’,5-Heptachlorobiphenyl 
2,2’,3,3’,4,5,5’-Heptachlorobiphenyl 
2,2’,3,3’,4,5,6-Heptachlorobiphenyl 
2,2’,3,3’,4,5,6’-Heptachlorobiphenyl 
2,2’,3,3’,4,5’,6-Heptachlorobiphenyl 
2,2’,3,3’,4,6,6’-Heptachlorobiphenyl 
2,2’,3,3’,4,5’,6’-Heptachlorobiphenyl 
2,2’,3,3’,5,5’,6-Heptachlorobiphenyl 
2,2’,3,3’,5,6,6’-Heptachlorobiphenyl 
2,2’,3,4,4’,5,5’-Heptachlorobiphenyl 
2,2’,3,4,4’,5,6-Heptachlorobiphenyl 
2,2’,3,4,4’,5,6’-Heptachlorobiphenyl 
2,2’,3,4,4’,5’,6-Heptachlorobiphenyl 
2,2’,3,4,4’,6,6’-Heptachlorobiphenyl 
2,2’,3,4,5,5’,6-Heptachlorobiphenyl 
2,2’,3,4,5,6,6’-Heptachlorobiphenyl 
2,2’,3,4’,5,5’,6-Heptachlorobiphenyl 
2,2’,3,4’,5,6,6’-Heptachlorobiphenyl 
2,3,3’,4,4’,5,5’-Heptachlorobiphenyl 
2,3,3’,4,4’,5,6-Heptachlorobiphenyl 
2,3,3’,4,4’,5’,6-Heptachlorobiphenyl 
2,3,3’,4,5,5’,6-Heptachlorobiphenyl 
2,3,3’,4’,5,5’,6-Heptachlorobiphenyl 
2,2’,3,3’,4,4’,5,5’-Octachlorobiphenyl 
2,2’,3,3’,4,4’,5,6-Octachlorobiphenyl 
2,2’,3,3’,4,4’,5,6’-Octachlorobiphenyl 
2,2’,3,3’,4,4’,6,6’-Octachlorobiphenyl 
2,2’,3,3’,4,5,5’,6-Octachlorobiphenyl 
2,2’,3,3’,4,5,5’,6’-Octachlorobiphenyl 
2,2’,3,3’,4,5,6,6’-Octachlorobiphenyl 
2,2’,3,3’,4,5’,6,6’-Octachlorobiphenyl 
2,2’,3,3’,5,5’,6,6’-Octachlorobiphenyl 
2,2’,3,4,4’,5,5’,6-Octachlorobiphenyl 
2,2’,3,4,4’,5,6,6’-Octachlorobiphenyl 
2,3,3’,4,4’,5,5’,6-Octachlorobiphenyl 
2,2’,3,3’,4,4’,5,5’,6-Nonachlorobiphenyl 
2,2’,3,3’,4,4’,5,6,6’-Nonachlorobiphenyl 
2,2’,3,3’,4,5,5’,6,6’-Nonachlorobiphenyl 
2,2’,3,3’,4,4’,5,5’,6,6’-Decachlorobiphenyl 

170 
172 
173 
174 
175 
176 
177 
178 
179 
180 
181 
182 
183 
184 
185 
186 
187 
188 
189 
190 
191 
192 
193 
194 
195 
196 
197 
198 
199 
200 
201 
202 
203 
204 
205 
206 
207 
208 
209 
aCalculated ΔvapHm using one parameter (NNH) regression. 
bCalculated ΔvapHm using two parameter (ω, NNH) regression. 
.cData from [Ref.16] for comparison. 
 
 
 
 
 
 
 
 
 
 

 

19

  Table 5: Predicted (ΔvapHm (298.15 K)) for 183 PCBs using regression from 27 PCBs 
 

IUPAC 
No 

Compounds 

2-Chlorobiphenyl 
3-Chlorobiphenyl 
4-Chlorobiphenyl 
2,3-Dichlorobiphenyl 
2,3’-Dichlorobiphenyl 
2,4-Dichlorobiphenyl 
2,5-Dichlorobiphenyl 
2,6-Dichlorobiphenyl 
3,3’-Dichlorobiphenyl 
3,4-Dichlorobiphenyl 
3,4’-Dichlorobiphenyl 
3,5-Dichlorobiphenyl 
2,2’,3-Trichlorobiphenyl 
2,2’,6-Trichlorobiphenyl 
2,3,3’-Trichlorobiphenyl 
2,3,4-Trichlorobiphenyl 
2,3,5-Trichlorobiphenyl 
2,3,6-Trichlorobiphenyl 
2,3’,4-Trichlorobiphenyl 
2,3’,5-Trichlorobiphenyl 
2,3’,6-Trichlorobiphenyl 
2,4,5-Trichlorobiphenyl 
2,4,6-Trichlorobiphenyl 
2,4’,6-Trichlorobiphenyl 
2,3’,5’-Trichlorobiphenyl 
3,3’,4-Trichlorobiphenyl 
3,3’,5-Trichlorobiphenyl 
3,4,4’-Trichlorobiphenyl 
3,4,5-Trichlorobiphenyl 
3,4’,5-Trichlorobiphenyl 
2,2’,3,3’-Tetrachlorobiphenyl 
2,2’,3,4-Tetrachlorobiphenyl 
2,2’,3,4’-Tetrachlorobiphenyl 
2,2’,3,5-Tetrachlorobiphenyl 
2,2’,3,6-Tetrachlorobiphenyl 
2,2’,3,6’-Tetrachlorobiphenyl 
2,2’,4,4’-Tetrachlorobiphenyl 
2,2’,4,5-Tetrachlorobiphenyl 
2,2’,4,5’-Tetrachlorobiphenyl 
2,2’,4,6-Tetrachlorobiphenyl 
2,2’,4,6’-Tetrachlorobiphenyl 
2,2’,5,6’-Tetrachlorobiphenyl 
2,2’,6,6’-Tetrachlorobiphenyl 
2,3,3’,4-Tetrachlorobiphenyl 
2,3,3’,4’-Tetrachlorobiphenyl 
2,3,3’,5-Tetrachlorobiphenyl 
2,3,3’,5’-Tetrachlorobiphenyl 
2,3,3’,6-Tetrachlorobiphenyl 

1 
2 
3 
5 
6 
7 
9 
10 
11 
12 
13 
14 
16 
19 
20 
21 
23 
24 
25 
26 
27 
29 
30 
32 
34 
35 
36 
37 
38 
39 
40 
41 
42 
43 
45 
46 
47 
48 
49 
50 
51 
53 
54 
55 
56 
57 
58 
59 

 

ω 

0.087 
0.085 
0.085 
0.094 
0.094 
0.096 
0.095 
0.091 
0.099 
0.099 
0.099 
0.099 
0.092 
0.092 
0.100 
0.102 
0.102 
0.100 
0.102 
0.101 
0.094 
0.103 
0.102 
0.094 
0.093 
0.106 
0.096 
0.106 
0.106 
0.106 
0.096 
0.101 
0.099 
0.101 
0.100 
0.095 
0.100 
0.102 
0.098 
0.102 
0.096 
0.094 
0.093 
0.107 
0.105 
0.107 
0.098 
0.104 

(ΔvapHm (298.15 K) 
Calcda 
(NNH) 
67.87 
67.87 
67.87 
72.90 
72.90 
72.90 
72.90 
72.90 
72.90 
72.90 
72.90 
72.90 
77.94 
77.94 
77.94 
77.94 
77.94 
77.94 
77.94 
77.94 
77.94 
77.94 
77.94 
77.94 
77.94 
77.94 
77.94 
77.94 
77.94 
77.94 
82.98 
82.98 
82.98 
82.98 
82.98 
82.98 
82.98 
82.98 
82.98 
82.98 
82.98 
82.98 
82.98 
82.98 
82.98 
82.98 
82.98 
82.98 

Calcdb 
(ω, NNH) 
66.81 
66.55 
66.55 
72.09 
72.09 
72.34 
72.22 
71.70 
72.73 
72.73 
72.73 
72.73 
76.22 
76.22 
77.24 
77.50 
77.50 
77.24 
77.50 
77.37 
76.47 
77.62 
77.50 
76.47 
76.34 
78.01 
76.73 
78.01 
78.01 
78.01 
81.11 
81.75 
81.49 
81.75 
81.62 
80.98 
81.62 
81.88 
81.37 
81.88 
81.11 
80.86 
80.73 
82.52 
82.26 
82.52 
81.37 
82.13 

20

2,3,4,4’-Tetrachlorobiphenyl 
2,3,4,5-Tetrachlorobiphenyl 
2,3,4,6-Tetrachlorobiphenyl 
2,3,4’,5-Tetrachlorobiphenyl 
2,3,4’,6-Tetrachlorobiphenyl 
2,3,5,6-Tetrachlorobiphenyl 
2,3’,4,5-Tetrachlorobiphenyl 
2,3’,4,5’-Tetrachlorobiphenyl 
2,3’,4,6-Tetrachlorobiphenyl 
2,3’,4’,6-Tetrachlorobiphenyl 
2,3’,5,5’-Tetrachlorobiphenyl 
2,3’,5’,6-Tetrachlorobiphenyl 
2,4,4’,5-Tetrachlorobiphenyl 
2,4,4’,6-Tetrachlorobiphenyl 
2,3’,4’,5’-Tetrachlorobiphenyl 
3,3’,4,5-Tetrachlorobiphenyl 
3,3’,4,5’-Tetrachlorobiphenyl 
3,3’,5,5’-Tetrachlorobiphenyl 
3,4,4’,5-Tetrachlorobiphenyl 
2,2’,3,3’,4-Pentachlorobiphenyl 
2,2’,3,3’,5-Pentachlorobiphenyl 
2,2’,3,3’,6-Pentachlorobiphenyl 
2,2’,3,4,4’-Pentachlorobiphenyl 
2,2’,3,4,5-Pentachlorobiphenyl 
2,2’,3,4,5’-Pentachlorobiphenyl 
2,2’,3,4,6-Pentachlorobiphenyl 
2,2’,3,4,6’-Pentachlorobiphenyl 
2,2’,3,4’,5-Pentachlorobiphenyl 
2,2’,3,4’,6-Pentachlorobiphenyl 
2,2’,3,5,5’-Pentachlorobiphenyl 
2,2’,3,5,6-Pentachlorobiphenyl 
2,2’,3,5,6’-Pentachlorobiphenyl 
2,2’,3,6,6’-Pentachlorobiphenyl 
2,2’,3,4’,5’-Pentachlorobiphenyl 
2,2’,4,4’,5-Pentachlorobiphenyl 
2,2’,4,4’,6-Pentachlorobiphenyl 
2,2’,4,5,6’-Pentachlorobiphenyl 
2,2’,4,5’,6-Pentachlorobiphenyl 
2,2’,4,6,6’-Pentachlorobiphenyl 
2,3,3’,4,4’-Pentachlorobiphenyl 
2,3,3’,4,5-Pentachlorobiphenyl 
2,3,3’,4’,5-Pentachlorobiphenyl 
2,3,3’,4,5’-Pentachlorobiphenyl 
2,3,3’,4,6-Pentachlorobiphenyl 
2,3,3’,5,5’-Pentachlorobiphenyl 
2,3,3’,5,6-Pentachlorobiphenyl 
2,3,3’,5’,6-Pentachlorobiphenyl 
2,3,4,4’,5-Pentachlorobiphenyl 
2,3,4,4’,6-Pentachlorobiphenyl 
2,3,4,5,6-Pentachlorobiphenyl 
2,3,4’,5,6-Pentachlorobiphenyl 
2,3’,4,4’,6-Pentachlorobiphenyl 
2,3’,4,5,5’-Pentachlorobiphenyl 

60 
61 
62 
63 
64 
65 
67 
68 
69 
71 
72 
73 
74 
75 
76 
78 
79 
80 
81 
82 
83 
84 
85 
86 
87 
88 
89 
90 
91 
92 
93 
94 
96 
97 
99 
100 
102 
103 
104 
105 
106 
107 
108 
109 
111 
112 
113 
114 
115 
116 
117 
119 
120 

 

0.107 
0.109 
0.108 
0.107 
0.104 
0.108 
0.109 
0.102 
0.105 
0.097 
0.101 
0.098 
0.106 
0.104 
0.102 
0.105 
0.101 
0.100 
0.112 
0.105 
0.104 
0.103 
0.105 
0.109 
0.104 
0.109 
0.102 
0.105 
0.104 
0.104 
0.108 
0.101 
0.100 
0.106 
0.107 
0.106 
0.103 
0.105 
0.103 
0.112 
0.114 
0.112 
0.108 
0.112 
0.108 
0.112 
0.107 
0.112 
0.112 
0.114 
0.112 
0.108 
0.110 

82.98 
82.98 
82.98 
82.98 
82.98 
82.98 
82.98 
82.98 
82.98 
82.98 
82.98 
82.98 
82.98 
82.98 
82.98 
82.98 
82.98 
82.98 
82.98 
88.02 
88.02 
88.02 
88.02 
88.02 
88.02 
88.02 
88.02 
88.02 
88.02 
88.02 
88.02 
88.02 
88.02 
88.02 
88.02 
88.02 
88.02 
88.02 
88.02 
88.02 
88.02 
88.02 
88.02 
88.02 
88.02 
88.02 
88.02 
88.02 
88.02 
88.02 
88.02 
88.02 
88.02 

82.52 
82.77 
82.65 
82.52 
82.13 
82.65 
82.77 
81.88 
82.26 
81.24 
81.75 
81.37 
82.39 
82.13 
81.88 
82.26 
81.75 
81.62 
83.16 
86.65 
86.52 
86.39 
86.65 
87.16 
86.52 
87.16 
86.26 
86.65 
86.52 
86.52 
87.03 
86.13 
86.01 
86.77 
86.90 
86.77 
86.39 
86.65 
86.39 
87.54 
87.80 
87.54 
87.03 
87.54 
87.03 
87.54 
86.90 
87.54 
87.54 
87.80 
87.54 
87.03 
87.29 

21

2,3’,4,5’,6-Pentachlorobiphenyl 
2,3,3’,4’,5’-Pentachlorobiphenyl 
2,3’,4,4’,5’-Pentachlorobiphenyl 
2,3’,4’,5,5’-Pentachlorobiphenyl 
2,3’,4’,5’,6-Pentachlorobiphenyl 
3,3’,4,5,5’-Pentachlorobiphenyl 
2,2’,3,3’,4,4’-Hexachlorobiphenyl 
2,2’,3,3’,4,5-Hexachlorobiphenyl 
2,2’,3,3’,4,5’-Hexachlorobiphenyl 
2,2’,3,3’,4,6-Hexachlorobiphenyl 
2,2’,3,3’,4,6’-Hexachlorobiphenyl 
2,2’,3,3’,5,5’-Hexachlorobiphenyl 
2,2’,3,3’,5,6-Hexachlorobiphenyl 
2,2’,3,3’,5,6’-Hexachlorobiphenyl 
2,2’,3,3’,6,6’-Hexachlorobiphenyl 
2,2’,3,4,4’,5’-Hexachlorobiphenyl 
2,2’,3,4,4’,6-Hexachlorobiphenyl 
2,2’,3,4,4’,6’-Hexachlorobiphenyl 
2,2’,3,4,5,5’-Hexachlorobiphenyl 
2,2’,3,4,5,6-Hexachlorobiphenyl 
2,2’,3,4,5,6’-Hexachlorobiphenyl 
2,2’,3,4,5’,6-Hexachlorobiphenyl 
2,2’,3,4,6,6’-Hexachlorobiphenyl 
2,2’,3,4’,5,5’-Hexachlorobiphenyl 
2,2’,3,4’,5,6-Hexachlorobiphenyl 
2,2’,3,4’,5,6’-Hexachlorobiphenyl 
2,2’,3,4’,6,6’-Hexachlorobiphenyl 
2,2’,3,5,5’,6-Hexachlorobiphenyl 
2,2’,3,5,6,6’-Hexachlorobiphenyl 
2,2’,4,4’,5,6’-Hexachlorobiphenyl 
2,2’,4,4’,6,6’-Hexachlorobiphenyl 
2,3,3’,4,4’,5-Hexachlorobiphenyl 
2,3,3’,4,4’,5’-Hexachlorobiphenyl 
2,3,3’,4,4’,6-Hexachlorobiphenyl 
2,3,3’,4,5,5’-Hexachlorobiphenyl 
2,3,3’,4,5,6-Hexachlorobiphenyl 
2,3,3’,4,5’,6-Hexachlorobiphenyl 
2,3,3’,4’,5,5’-Hexachlorobiphenyl 
2,3,3’,4’,5,6-Hexachlorobiphenyl 
2,3,3’,4’,5’,6-Hexachlorobiphenyl 
2,3,3’,5,5’,6-Hexachlorobiphenyl 
2,3,4,4’,5,6-Hexachlorobiphenyl 
2,3’,4,4’,5,5’-Hexachlorobiphenyl 
2,3’,4,4’,5’,6-Hexachlorobiphenyl 
3,3’,4,4’,5,5’-Hexachlorobiphenyl 
2,2’,3,3’,4,4’,6-Heptachlorobiphenyl 
2,2’,3,3’,4,5,5’-Heptachlorobiphenyl 
2,2’,3,3’,4,5,6-Heptachlorobiphenyl 
2,2’,3,3’,4,5’,6-Heptachlorobiphenyl 
2,2’,3,3’,4,6,6’-Heptachlorobiphenyl 
2,2’,3,3’,4,5’,6’-Heptachlorobiphenyl 
2,2’,3,3’,5,5’,6-Heptachlorobiphenyl 
2,2’,3,3’,5,6,6’-Heptachlorobiphenyl 

0.109 
0.106 
0.106 
0.105 
0.103 
0.109 
0.109 
0.112 
0.108 
0.112 
0.107 
0.108 
0.111 
0.106 
0.103 
0.109 
0.113 
0.109 
0.112 
0.114 
0.109 
0.112 
0.109 
0.110 
0.112 
0.108 
0.106 
0.111 
0.108 
0.108 
0.108 
0.119 
0.111 
0.115 
0.116 
0.118 
0.116 
0.111 
0.115 
0.110 
0.115 
0.118 
0.112 
0.112 
0.112 
0.116 
0.116 
0.118 
0.115 
0.112 
0.114 
0.114 
0.111 

88.02 
88.02 
88.02 
88.02 
88.02 
88.02 
93.06 
93.06 
93.06 
93.06 
93.06 
93.06 
93.06 
93.06 
93.06 
93.06 
93.06 
93.06 
93.06 
93.06 
93.06 
93.06 
93.06 
93.06 
93.06 
93.06 
93.06 
93.06 
93.06 
93.06 
93.06 
93.06 
93.06 
93.06 
93.06 
93.06 
93.06 
93.06 
93.06 
93.06 
93.06 
93.06 
93.06 
93.06 
93.06 
98.10 
98.10 
98.10 
98.10 
98.10 
98.10 
98.10 
98.10 

87.16 
86.77 
86.77 
86.65 
86.39 
87.16 
91.54 
91.92 
91.41 
91.92 
91.28 
91.41 
91.80 
91.16 
90.77 
91.54 
92.05 
91.54 
91.92 
92.18 
91.54 
91.92 
91.54 
91.67 
91.92 
91.41 
91.16 
91.80 
91.41 
91.41 
91.41 
92.82 
91.80 
92.31 
92.44 
92.69 
92.44 
91.80 
92.31 
91.67 
92.31 
92.69 
91.92 
91.92 
91.92 
96.82 
96.82 
97.08 
96.69 
96.31 
96.56 
96.56 
96.18 

121 
122 
123 
124 
125 
127 
128 
129 
130 
131 
132 
133 
134 
135 
136 
138 
139 
140 
141 
142 
143 
144 
145 
146 
147 
148 
150 
151 
152 
154 
155 
156 
157 
158 
159 
160 
161 
162 
163 
164 
165 
166 
167 
168 
169 
171 
172 
173 
175 
176 
177 
178 
179 

 

22

98.10 
98.10 
98.10 
98.10 
98.10 
98.10 
98.10 
98.10 
98.10 
98.10 
98.10 
98.10 
98.10 
103.10 
103.10 
103.10 
103.10 
103.10 
103.10 
103.10 
103.10 
103.10 
103.10 
103.10 
103.10 
108.20 
108.20 
108.20 
108.20 

97.20 
96.44 
96.69 
96.44 
97.08 
96.69 
96.56 
96.18 
97.20 
97.46 
97.20 
97.59 
97.08 
101.60 
101.80 
101.50 
101.20 
101.80 
101.30 
101.50 
101.10 
100.90 
101.80 
101.60 
102.40 
106.60 
106.40 
106.20 
106.60 

0.119 
0.113 
0.115 
0.113 
0.118 
0.115 
0.114 
0.111 
0.119 
0.121 
0.119 
0.122 
0.118 
0.119 
0.121 
0.118 
0.116 
0.121 
0.117 
0.118 
0.115 
0.114 
0.121 
0.119 
0.125 
0.124 
0.122 
0.121 
0.124 

2,2’,3,4,4’,5,6-Heptachlorobiphenyl 
181 
2,2’,3,4,4’,5,6’-Heptachlorobiphenyl 
182 
2,2’,3,4,4’,5’,6-Heptachlorobiphenyl 
183 
2,2’,3,4,4’,6,6’-Heptachlorobiphenyl 
184 
2,2’,3,4,5,5’,6-Heptachlorobiphenyl 
185 
2,2’,3,4,5,6,6’-Heptachlorobiphenyl 
186 
2,2’,3,4’,5,5’,6-Heptachlorobiphenyl 
187 
2,2’,3,4’,5,6,6’-Heptachlorobiphenyl 
188 
2,3,3’,4,4’,5,5’-Heptachlorobiphenyl 
189 
2,3,3’,4,4’,5,6-Heptachlorobiphenyl 
190 
2,3,3’,4,4’,5’,6-Heptachlorobiphenyl 
191 
2,3,3’,4,5,5’,6-Heptachlorobiphenyl 
192 
2,3,3’,4’,5,5’,6-Heptachlorobiphenyl 
193 
2,2’,3,3’,4,4’,5,5’-Octachlorobiphenyl 
194 
2,2’,3,3’,4,4’,5,6-Octachlorobiphenyl 
195 
2,2’,3,3’,4,4’,5,6’-Octachlorobiphenyl 
196 
2,2’,3,3’,4,4’,6,6’-Octachlorobiphenyl 
197 
2,2’,3,3’,4,5,5’,6-Octachlorobiphenyl 
198 
2,2’,3,3’,4,5,5’,6’-Octachlorobiphenyl 
199 
2,2’,3,3’,4,5,6,6’-Octachlorobiphenyl 
200 
2,2’,3,3’,4,5’,6,6’-Octachlorobiphenyl 
201 
2,2’,3,3’,5,5’,6,6’-Octachlorobiphenyl 
202 
2,2’,3,4,4’,5,5’,6-Octachlorobiphenyl 
203 
2,2’,3,4,4’,5,6,6’-Octachlorobiphenyl 
204 
2,3,3’,4,4’,5,5’,6-Octachlorobiphenyl 
205 
2,2’,3,3’,4,4’,5,5’,6-Nonachlorobiphenyl 
206 
2,2’,3,3’,4,4’,5,6,6’-Nonachlorobiphenyl 
207 
2,2’,3,3’,4,5,5’,6,6’-Nonachlorobiphenyl 
208 
2,2’,3,3’,4,4’,5,5’,6,6’-Decachlorobiphenyl 
209 
aCalculated ΔvapHm using one parameter (NNH) regression. 
bCalculated ΔvapHm using two parameter (ω, NNH) regression. 
 
 
 
 
 
 
 

  
 
 
 
 
 
 
                                                                   

 

23

120

110

100

90

80

70

60

l

e
u
a
v
 
 

m
H

p
a
v
Δ

 
 
l
a
t
n
e
m

i
r
e
p
x
E

100

90

80

70

60

l

e
u
a
v
 
 

m
H

p
a
v
 
Δ

 
l
a
t
n
e
m

i
r
e
p
x
E

 

Calc. (Δ

) = 6.0665* N
H
m

NH

vap

 - 7.5868

Calc. (Δ

) = 654.9342*ω + 2.8817*N
H
m

NH

vap

 -22.5620

120

110

100

90

80

70

60

l

e
u
a
v
 
 

m
H

p
a
v

Δ

 
l

a

t

n
e
m

i
r
e
p
x
E

l

e
u
a
v
 
 

m
H

p
a
v
Δ

 
l
a
 
t
n
e
m

i
r
t
e
p
x
E

90

80

70

60

R2=0.908; R2
=0.902; R2
Ad
CV
               SD=4.224  N=17

=0.866

60

70

80

90

100

110

Calculated Δ

Value
H
m

vap

R2=0.951; R2
Ad
CV
                SD=3.064;  N=17

=0.948; R2

=0.935

   

60

80

70
Calculated Δ

90
Value
H
m

vap

100

110

 

                                     (a)                                                                    (b) 
Figure  3:  Calculated  vs  experimental  values  of  ΔvapHm  of  17  PCBs  using  (a)  one 
parameter (NNH) and (b) two parameter (NNH, ω) regression. 
 
Regression Equations: 
 
Parameters  Regression Equations 
One 
Two 
 
 
 

      Calc. (ΔvapHm)=6.0665* NNH - 7.5868 
Calc. (ΔvapHm) =654.9342*ω +2.8817* NNH -22.5620 

R2
0.866 
0.935 

R2 
0.908 
0.951 

(CV)  R2

(Ad) 
0.902 
0.948 

100 Calc. (Δ

) = 5.0386* N
H
m

NH

vap

  + 2.3637

Calc. (Δ

) = 127.9448*ω + 4.3831* N
H
m

NH

vap

 -1.3026

R2=0.853; R2
Ad
CV
               SD=3.696;  N=27

=0.847; R2

=0.832

R2=0.856; R2
=0.851; R2
Ad
             SD=3.654;  N=27

CV

=0.836

60

65

70

95

100

75

80
Calculated Δ

85
90
  value
H
m

vap

         

60

65

90

95

100

70
75
Calculated Δ

80

vap

85
 value
H
m

 

                                      (a)                                                                    (b) 
Figure  4:  Calculated  vs  experimental  values  of  ΔvapHm  of  27  PCBs  using  a)  one 
parameter (NNH) and b) two parameter (NNH, ω) regressions. 
 
Regression Equations: 
 
Parameters  Regression Equations 
One 
Two 

R2 
Calc. (ΔvapHm) = 5.0386* NNH  + 2.3637 
0.853 
Calc. (ΔvapHm) = 127.9448* ω  + 4.3831* NNH  - 1.3026  0.856 

R2 
0.832 
0.836 

(CV)  R2 

(Ad) 
0.847 
0.851 

 

24

 

 
e
u
a
v

l

m
H

p
a
v

Δ

 
l
a
t
n
e
m

i
r
e
p
x
E

 

110

100

90

80

70

60

 

 

e
u
a
v

l

m
H

p
a
v

Δ

 
l

a

t

n
e
m

i
r
e
p
x
E

 

120

110

100

90

80

70

 

2 
11 
12 
13 
15 
16 
22 
24 
25 
26 
28 
31 
32 
33 
34 
40 
41 
47 
48 
49 
50 
51 
52 
53 

 

0

50

100

150

200

250

193 PCB Congeners

   

0

50

100

150

200

250

183 PCB Congeners

 

                     (a) Using 17 PCB                                                     (b) Using 27 PCB 
 
Figure 5: Predicted ΔvapHm values in the general set for (a) 193 PCB congeners and (b) 
183 PCB congeners. 

 

                                          
    Table 6. QSPR models for log P calculation of 100 PCBs as training set. 

IUPAC 
No 

Compounds 

log P Value 

Exptl* 

3-Chlorobiphenyl 
3,3’-Dichlorobiphenyl 
3,4-Dichlorobiphenyl 
3,4’-Dichlorobiphenyl 
4,4’-Dichlorobiphenyl 
2,2’,3-Trichlorobiphenyl 
2,3,4’-Trichlorobiphenyl 
2,3,6-Trichlorobiphenyl 
2,3’,4-Trichlorobiphenyl 
2,3’,5-Trichlorobiphenyl 
2,4,4’-Trichlorobiphenyl 
2,4’,5-Trichlorobiphenyl 
2,4’,6-Trichlorobiphenyl 
2,3’,4’-Trichlorobiphenyl 
2,3’,5’-Trichlorobiphenyl 
2,2’,3,3’-Tetrachlorobiphenyl 
2,2’,3,4-Tetrachlorobiphenyl 
2,2’,4,4’-Tetrachlorobiphenyl 
2,2’,4,5-Tetrachlorobiphenyl 
2,2’,4,5’-Tetrachlorobiphenyl 
2,2’,4,6-Tetrachlorobiphenyl 
2,2’,4,6’-Tetrachlorobiphenyl 
2,2’,5,5’-Tetrachlorobiphenyl 
2,2’,5,6’-Tetrachlorobiphenyl 

ω 

0.085 
0.099 
0.099 
0.099 
0.090 
0.092 
0.100 
0.100 
0.102 
0.101 
0.102 
0.097 
0.094 
0.100 
0.093 
0.096 
0.101 
0.100 
0.102 
0.098 
0.102 
0.096 
0.097 
0.094 

4.66 
5.27 
5.23 
5.15 
5.23 
5.12 
5.29 
5.44 
5.54 
5.65 
5.71 
5.68 
5.24 
5.71 
5.71 
5.67 
5.79 
5.94 
5.69 
5.87 
5.75 
5.51 
5.79 
5.55 

Calcda 
(NNH) 
4.73 
5.13 
5.13 
5.13 
5.13 
5.52 
5.52 
5.52 
5.52 
5.52 
5.52 
5.52 
5.52 
5.52 
5.52 
5.92 
5.92 
5.92 
5.92 
5.92 
5.92 
5.92 
5.92 
5.92 

Calcdb 
(ω, NNH) 
4.52 
5.37 
5.37 
5.37 
4.94 
5.22 
5.60 
5.60 
5.69 
5.65 
5.69 
5.46 
5.32 
5.60 
5.27 
5.60 
5.83 
5.79 
5.88 
5.69 
5.88 
5.60 
5.65 
5.51 

25

2,2’,6,6’-Tetrachlorobiphenyl 
2,3,3’,4-Tetrachlorobiphenyl 
2,3,4,4’-Tetrachlorobiphenyl 
2,3,4’,5-Tetrachlorobiphenyl 
2,3,4’,6-Tetrachlorobiphenyl 
2,3,5,6-Tetrachlorobiphenyl 
2,3’,4,4’-Tetrachlorobiphenyl 
2,3’,4,5-Tetrachlorobiphenyl 
2,3’,4,6-Tetrachlorobiphenyl 
2,3’,4’,6-Tetrachlorobiphenyl 
2,4,4’,5-Tetrachlorobiphenyl 
2,4,4’,6-Tetrachlorobiphenyl 
2,3’,4’,5’-Tetrachlorobiphenyl 
2,2’,3,3’,6-Pentachlorobiphenyl 
2,2’,3,4’,5-Pentachlorobiphenyl 
2,2’,3,4’,6-Pentachlorobiphenyl 
2,2’,3,5,5’-Pentachlorobiphenyl 
2,2’,3,5,6-Pentachlorobiphenyl 
2,2’,3,5’,6-Pentachlorobiphenyl 
2,2’,3,4’,5’-Pentachlorobiphenyl 
2,2’,3,4’,6’-Pentachlorobiphenyl 
2,2’,4,4’,5-Pentachlorobiphenyl 
2,2’,4,4’,6-Pentachlorobiphenyl 
2,2’,4,5’,6-Pentachlorobiphenyl 
2,3,3’,4,4’-Pentachlorobiphenyl 
2,3,3’,4,5-Pentachlorobiphenyl 
2,3,3’,4’,6-Pentachlorobiphenyl 
2,3,3’,5,6-Pentachlorobiphenyl 
2,3,3’,5’,6-Pentachlorobiphenyl 
2,3,4,4’,5-Pentachlorobiphenyl 
2,3,4,4’,6-Pentachlorobiphenyl 
2,3,4’,5,6-Pentachlorobiphenyl 
2,3’,4,4’,5-Pentachlorobiphenyl 
2,3’,4,4’,6-Pentachlorobiphenyl 
2,3’,4,5,5’-Pentachlorobiphenyl 
2,3’,4,5’,6-Pentachlorobiphenyl 
2,3’,4,4’,5’-Pentachlorobiphenyl 
2,2’,3,3’,5,6’-Hexachlorobiphenyl 
2,2’,3,4,4’,5-Hexachlorobiphenyl 
2,2’,3,4,4’,5’-Hexachlorobiphenyl 
2,2’,3,4,4’,6’-Hexachlorobiphenyl 
2,2’,3,4,5,5’-Hexachlorobiphenyl 
2,2’,3,4,5,6’-Hexachlorobiphenyl 
2,2’,3,4,5’,6-Hexachlorobiphenyl 
2,2’,3,4’,5,5’-Hexachlorobiphenyl 
2,2’,3,4’,5’,6-Hexachlorobiphenyl 
2,2’,3,5,5’,6-Hexachlorobiphenyl 
2,2’,4,4’,5,5’-Hexachlorobiphenyl 
2,2’,4,4’,5,6’-Hexachlorobiphenyl 
2,2’,4,4’,6,6’-Hexachlorobiphenyl 
2,3,3’,4,4’,5-Hexachlorobiphenyl 
2,3,3’,4,4’,6-Hexachlorobiphenyl 
2,3,3’,4’,5,6-Hexachlorobiphenyl 

0.093 
0.107 
0.107 
0.107 
0.104 
0.108 
0.108 
0.109 
0.105 
0.097 
0.106 
0.104 
0.102 
0.103 
0.105 
0.104 
0.104 
0.108 
0.103 
0.106 
0.105 
0.107 
0.106 
0.105 
0.112 
0.114 
0.106 
0.112 
0.107 
0.112 
0.112 
0.112 
0.114 
0.108 
0.110 
0.109 
0.106 
0.106 
0.113 
0.109 
0.109 
0.112 
0.109 
0.112 
0.11 
0.107 
0.111 
0.110 
0.108 
0.108 
0.119 
0.115 
0.115 

5.24 
6.1 
6.24 
6.1 
5.76 
5.96 
5.98 
6.32 
6.03 
5.76 
6.1 
6.03 
5.98 
5.6 
6.32 
5.87 
6.32 
6.06 
5.92 
6.3 
6.04 
6.41 
6.23 
6.11 
6.79 
6.92 
6.2 
6.41 
6.45 
6.71 
6.44 
6.39 
6.57 
6.4 
6.3 
6.42 
6.64 
6.32 
6.82 
6.73 
6.58 
6.75 
6.56 
6.45 
6.85 
6.41 
6.42 
6.8 
6.65 
6.54 
7.44 
6.78 
6.78 

5.92 
5.92 
5.92 
5.92 
5.92 
5.92 
5.92 
5.92 
5.92 
5.92 
5.92 
5.92 
5.92 
6.31 
6.31 
6.31 
6.31 
6.31 
6.31 
6.31 
6.31 
6.31 
6.31 
6.31 
6.31 
6.31 
6.31 
6.31 
6.31 
6.31 
6.31 
6.31 
6.31 
6.31 
6.31 
6.31 
6.31 
6.71 
6.71 
6.71 
6.71 
6.71 
6.71 
6.71 
6.71 
6.71 
6.71 
6.71 
6.71 
6.71 
6.71 
6.71 
6.71 

5.46 
6.12 
6.12 
6.12 
5.97 
6.16 
6.16 
6.21 
6.02 
5.65 
6.07 
5.97 
5.88 
6.11 
6.21 
6.16 
6.16 
6.35 
6.11 
6.25 
6.21 
6.30 
6.25 
6.21 
6.54 
6.63 
6.25 
6.54 
6.30 
6.54 
6.54 
6.54 
6.63 
6.35 
6.44 
6.40 
6.25 
6.44 
6.77 
6.58 
6.58 
6.72 
6.58 
6.72 
6.63 
6.49 
6.68 
6.63 
6.54 
6.54 
7.05 
6.86 
6.86 

54 
55 
60 
63 
64 
65 
66 
67 
69 
71 
74 
75 
76 
84 
90 
91 
92 
93 
95 
97 
98 
99 
100 
103 
105 
106 
110 
112 
113 
114 
115 
117 
118 
119 
120 
121 
123 
135 
137 
138 
140 
141 
143 
144 
146 
149 
151 
153 
154 
155 
156 
158 
163 

 

26

2,3,3’,4’,5’,6-Hexachlorobiphenyl 
2,3,3’,5,5’,6-Hexachlorobiphenyl 
2,3’,4,4’,5,5’-Hexachlorobiphenyl 
3,3’,4,4’,5,5’-Hexachlorobiphenyl 
2,2’,3,3’,4,4’,5-Heptachlorobiphenyl 
2,2’,3,3’,4,5’,6’-Heptachlorobiphenyl 
2,2’,3,3’,5,5’,6-Heptachlorobiphenyl 
2,2’,3,3’,5,6,6’-Heptachlorobiphenyl 
2,2’,3,4,4’,5,5’-Heptachlorobiphenyl 
2,2’,3,4,4’,5,6-Heptachlorobiphenyl 
2,2’,3,4,4’,5,6’-Heptachlorobiphenyl 
2,2’,3,4,4’,5’,6-Heptachlorobiphenyl 
2,2’,3,4,5,5’,6-Heptachlorobiphenyl 
2,2’,3,4’,5,6,6’-Heptachlorobiphenyl 
2,3,3’,4,4’,5,5’-Heptachlorobiphenyl 
2,3,3’,4,4’,5,6-Heptachlorobiphenyl 
2,3,3’,4,4’,5’,6-Heptachlorobiphenyl 
2,3,3’,4,5,5’,6-Heptachlorobiphenyl 
2,3,3’,4’,5,5’,6-Heptachlorobiphenyl 
2,2’,3,3’,4,4’,5,5’-Octachlorobiphenyl 
2,2’,3,3’,4,4’,5,6-Octachlorobiphenyl 
2,3,3’,4,4’,5,5’,6-Octachlorobiphenyl 
2,2’,3,3’,4,4’,5,6,6’-Nonachlorobiphenyl 

164 
165 
167 
169 
170 
177 
178 
179 
180 
181 
182 
183 
185 
188 
189 
190 
191 
192 
193 
194 
195 
205 
207 
*Experimental data taken from References [19,20]. 
aCalculated log P values using one parameter (NNH) regression. 
bCalculated log P values using two parameter (ω, NNH) regression. 
 

0.110 
0.115 
0.112 
0.112 
0.116 
0.114 
0.114 
0.111 
0.115 
0.119 
0.113 
0.115 
0.118 
0.111 
0.119 
0.121 
0.119 
0.122 
0.118 
0.119 
0.121 
0.125 
0.122 

6.63 
7 
7.29 
7.55 
7.08 
6.73 
6.85 
6.41 
7.21 
7.13 
6.92 
7.04 
6.99 
6.78 
7.72 
7.08 
7.21 
7.21 
7.21 
7.62 
7.35 
7.62 
7.88 

6.71 
6.71 
6.71 
6.71 
7.10 
7.10 
7.10 
7.10 
7.10 
7.10 
7.10 
7.10 
7.10 
7.10 
7.10 
7.10 
7.10 
7.10 
7.10 
7.50 
7.50 
7.50 
7.89 

6.63 
6.86 
6.72 
6.72 
7.10 
7.00 
7.00 
6.86 
7.05 
7.24 
6.96 
7.05 
7.19 
6.86 
7.24 
7.33 
7.24 
7.38 
7.19 
7.42 
7.52 
7.71 
7.75 

Table 7: Calculation of log P values of 33 PCBs as test set 
 

IUPAC 
No 

Compounds 

log P Value 

Expl* 

4-Chlorobiphenyl 
2,2’-Dichlorobiphenyl 
2,3-Dichlorobiphenyl 
2,3’-Dichlorobiphenyl 
2,4-Dichlorobiphenyl 
2,4’-Dichlorobiphenyl 
2,2’,4-Trichlorobiphenyl 
2,20,5-Trichlorobiphenyl 
2,2’,6-Trichlorobiphenyl 
2,3,3’-Trichlorobiphenyl 
2,3,4-Trichlorobiphenyl 
2,2’,3,4’-Tetrachlorobiphenyl 
2,2’,3,5’-Tetrachlorobiphenyl 
2,2’,3,6-Tetrachlorobiphenyl 
2,2’,3,6’-Tetrachlorobiphenyl 
2,2’,3,4,4’-Pentachlorobiphenyl 
2,2’,3,4,5-Pentachlorobiphenyl 
2,2’,3,4,5’-Pentachlorobiphenyl 
2,2’,3,4,6-Pentachlorobiphenyl 

3 
4 
5 
6 
7 
8 
17 
18 
19 
20 
21 
42 
44 
45 
46 
85 
86 
87 
88 

 

ω 

0.085 
0.086 
0.094 
0.094 
0.096 
0.087 
0.095 
0.094 
0.092 
0.100 
0.102 
0.099 
0.097 
0.100 
0.095 
0.105 
0.109 
0.104 
0.109 

4.63 
4.72 
4.99 
4.84 
5.15 
5.09 
5.39 
5.33 
5.04 
5.6 
5.68 
5.72 
5.73 
4.84 
4.84 
6.18 
6.38 
6.23 
6.5 

Calcda 
(NNH) 
4.73 
5.13 
5.13 
5.13 
5.13 
5.13 
5.52 
5.52 
5.52 
5.52 
5.52 
5.92 
5.92 
5.92 
5.92 
6.31 
6.31 
6.31 
6.31 

Calcdb 
(ω, NNH) 
4.52 
4.76 
5.13 
5.13 
5.23 
4.80 
5.37 
5.32 
5.23 
5.60 
5.70 
5.74 
5.65 
5.79 
5.55 
6.21 
6.40 
6.16 
6.40 

27

0.102 
0.112 
0.108 
0.112 
0.107 
0.111 
0.116 
0.113 
0.115 
0.112 
0.118 
0.121 
0.119 
0.124 

2,2’,3,4,6’-Pentachlorobiphenyl 
2,2’,3,3’,4,5-Hexachlorobiphenyl 
2,2’,3,3’,4,5’-Hexachlorobiphenyl 
2,2’,3,3’,4,6-Hexachlorobiphenyl 
2,2’,3,3’,4,6’-Hexachlorobiphenyl 
2,2’,3,3’,5,6-Hexachlorobiphenyl 
2,2’,3,3’,4,5,5’-Heptachlorobiphenyl 
2,2’,3,3’,4,5,6’-Heptachlorobiphenyl 
2,2’,3,3’,4,5’,6-Heptachlorobiphenyl 
2,2’,3,3’,4,6,6’-Heptachlorobiphenyl 
2,2’,3,3’,4,4’,5,6’-Octachlorobiphenyl 
2,2’,3,4,4’,5,5’,6-Octachlorobiphenyl 
2,2’,3,4,4’,5,6,6’-Octachlorobiphenyl 
2,2’,3,3’,4,4’,5,5’,6-Nonachlorobiphenyl 

89 
129 
130 
131 
132 
134 
172 
174 
175 
176 
196 
203 
204 
206 
*Experimental data taken from References [19,20]. 
aCalculated log P values using one parameter (NNH) regression. 
bCalculated log P values using two parameter (ω, NNH) regression. 
 
 
Table 8: Calculation of log P values of 133 PCBs as the data set: 
 

5.6 
6.76 
7.3 
6.78 
6.2 
6.2 
7.21 
6.85 
6.92 
6.55 
7.43 
7.49 
7.48 
7.94 

6.31 
6.71 
6.71 
6.71 
6.71 
6.71 
7.10 
7.10 
7.10 
7.10 
7.50 
7.50 
7.50 
7.89 

IUPAC 
No 

Compounds 

log P Value 

Exptl* 

6.07 
6.72 
6.54 
6.72 
6.49 
6.68 
7.10 
6.96 
7.05 
6.91 
7.38 
7.52 
7.43 
7.85 

3-Chlorobiphenyl 
4-Chlorobiphenyl 
2,2’-Dichlorobiphenyl 
2,3-Dichlorobiphenyl 
2,3’-Dichlorobiphenyl 
2,4-Dichlorobiphenyl 
2,4’-Dichlorobiphenyl 
3,3’-Dichlorobiphenyl 
3,4-Dichlorobiphenyl 
3,4’-Dichlorobiphenyl 
4,4’-Dichlorobiphenyl 
2,2’,3-Trichlorobiphenyl 
2,2’,4-Trichlorobiphenyl 
2,20,5-Trichlorobiphenyl 
2,2’,6-Trichlorobiphenyl 
2,3,3’-Trichlorobiphenyl 
2,3,4-Trichlorobiphenyl 
2,3,4’-Trichlorobiphenyl 
2,3,6-Trichlorobiphenyl 
2,3’,4-Trichlorobiphenyl 
2,3’,5-Trichlorobiphenyl 
2,4,4’-Trichlorobiphenyl 
2,4’,5-Trichlorobiphenyl 
2,4’,6-Trichlorobiphenyl 
2,3’,4’-Trichlorobiphenyl 
2,3’,5’-Trichlorobiphenyl 
2,2’,3,3’-Tetrachlorobiphenyl 
2,2’,3,4-Tetrachlorobiphenyl 
2,2’,3,4’-Tetrachlorobiphenyl 

2 
3 
4 
5 
6 
7 
8 
11 
12 
13 
15 
16 
17 
18 
19 
20 
21 
22 
24 
25 
26 
28 
31 
32 
33 
34 
40 
41 
42 

 

ω 

0.085 
0.085 
0.086 
0.094 
0.094 
0.096 
0.087 
0.099 
0.099 
0.099 
0.09 
0.092 
0.095 
0.094 
0.092 
0.100 
0.102 
0.100 
0.100 
0.102 
0.101 
0.102 
0.097 
0.094 
0.100 
0.093 
0.096 
0.101 
0.099 

4.66 
4.63 
4.72 
4.99 
4.84 
5.15 
5.09 
5.27 
5.23 
5.15 
5.23 
5.12 
5.39 
5.33 
5.04 
5.6 
5.68 
5.29 
5.44 
5.54 
5.65 
5.71 
5.68 
5.24 
5.71 
5.71 
5.67 
5.79 
5.72 

Calcda 
(NNH) 
4.64 
4.64 
5.05 
5.05 
5.05 
5.05 
5.05 
5.05 
5.05 
5.05 
5.05 
5.45 
5.45 
5.45 
5.45 
5.45 
5.45 
5.45 
5.45 
5.45 
5.45 
5.45 
5.45 
5.45 
5.45 
5.45 
5.86 
5.86 
5.86 

Calcdb 
(ω, NNH) 
4.47 
4.47 
4.69 
5.10 
5.10 
5.21 
4.75 
5.36 
5.36 
5.36 
4.90 
5.17 
5.33 
5.28 
5.17 
5.58 
5.68 
5.58 
5.58 
5.68 
5.63 
5.68 
5.43 
5.28 
5.58 
5.22 
5.55 
5.81 
5.70 

28

44 
45 
46 
47 
48 
49 
50 
51 
52 
53 
54 
55 
60 
63 
64 
65 
66 
67 
69 
71 
74 
75 
76 
84 
85 
86 
87 
88 
89 
90 
91 
92 
93 
95 
97 
98 
99 
100 
103 
105 
106 
110 
112 
113 
114 
115 
117 
118 
119 
120 
121 
123 
129 

 

2,2’,3,5’-Tetrachlorobiphenyl 
2,2’,3,6-Tetrachlorobiphenyl 
2,2’,3,6’-Tetrachlorobiphenyl 
2,2’,4,4’-Tetrachlorobiphenyl 
2,2’,4,5-Tetrachlorobiphenyl 
2,2’,4,5’-Tetrachlorobiphenyl 
2,2’,4,6-Tetrachlorobiphenyl 
2,2’,4,6’-Tetrachlorobiphenyl 
2,2’,5,5’-Tetrachlorobiphenyl 
2,2’,5,6’-Tetrachlorobiphenyl 
2,2’,6,6’-Tetrachlorobiphenyl 
2,3,3’,4-Tetrachlorobiphenyl 
2,3,4,4’-Tetrachlorobiphenyl 
2,3,4’,5-Tetrachlorobiphenyl 
2,3,4’,6-Tetrachlorobiphenyl 
2,3,5,6-Tetrachlorobiphenyl 
2,3’,4,4’-Tetrachlorobiphenyl 
2,3’,4,5-Tetrachlorobiphenyl 
2,3’,4,6-Tetrachlorobiphenyl 
2,3’,4’,6-Tetrachlorobiphenyl 
2,4,4’,5-Tetrachlorobiphenyl 
2,4,4’,6-Tetrachlorobiphenyl 
2,3’,4’,5’-Tetrachlorobiphenyl 
2,2’,3,3’,6-Pentachlorobiphenyl 
2,2’,3,4,4’-Pentachlorobiphenyl 
2,2’,3,4,5-Pentachlorobiphenyl 
2,2’,3,4,5’-Pentachlorobiphenyl 
2,2’,3,4,6-Pentachlorobiphenyl 
2,2’,3,4,6’-Pentachlorobiphenyl 
2,2’,3,4’,5-Pentachlorobiphenyl 
2,2’,3,4’,6-Pentachlorobiphenyl 
2,2’,3,5,5’-Pentachlorobiphenyl 
2,2’,3,5,6-Pentachlorobiphenyl 
2,2’,3,5’,6-Pentachlorobiphenyl 
2,2’,3,4’,5’-Pentachlorobiphenyl 
2,2’,3,4’,6’-Pentachlorobiphenyl 
2,2’,4,4’,5-Pentachlorobiphenyl 
2,2’,4,4’,6-Pentachlorobiphenyl 
2,2’,4,5’,6-Pentachlorobiphenyl 
2,3,3’,4,4’-Pentachlorobiphenyl 
2,3,3’,4,5-Pentachlorobiphenyl 
2,3,3’,4’,6-Pentachlorobiphenyl 
2,3,3’,5,6-Pentachlorobiphenyl 
2,3,3’,5’,6-Pentachlorobiphenyl 
2,3,4,4’,5-Pentachlorobiphenyl 
2,3,4,4’,6-Pentachlorobiphenyl 
2,3,4’,5,6-Pentachlorobiphenyl 
2,3’,4,4’,5-Pentachlorobiphenyl 
2,3’,4,4’,6-Pentachlorobiphenyl 
2,3’,4,5,5’-Pentachlorobiphenyl 
2,3’,4,5’,6-Pentachlorobiphenyl 
2,3’,4,4’,5’-Pentachlorobiphenyl 
2,2’,3,3’,4,5-Hexachlorobiphenyl 

0.097 
0.100 
0.095 
0.100 
0.102 
0.098 
0.102 
0.096 
0.097 
0.094 
0.093 
0.107 
0.107 
0.107 
0.104 
0.108 
0.108 
0.109 
0.105 
0.097 
0.106 
0.104 
0.102 
0.103 
0.105 
0.109 
0.104 
0.109 
0.102 
0.105 
0.104 
0.104 
0.108 
0.103 
0.106 
0.105 
0.107 
0.106 
0.105 
0.112 
0.114 
0.106 
0.112 
0.107 
0.112 
0.112 
0.112 
0.114 
0.108 
0.110 
0.109 
0.106 
0.112 

5.73 
4.84 
4.84 
5.94 
5.69 
5.87 
5.75 
5.51 
5.79 
5.55 
5.24 
6.1 
6.24 
6.1 
5.76 
5.96 
5.98 
6.32 
6.03 
5.76 
6.1 
6.03 
5.98 
5.6 
6.18 
6.38 
6.23 
6.5 
5.6 
6.32 
5.87 
6.32 
6.06 
5.92 
6.3 
6.04 
6.41 
6.23 
6.11 
6.79 
6.92 
6.2 
6.41 
6.45 
6.71 
6.44 
6.39 
6.57 
6.4 
6.3 
6.42 
6.64 
6.76 

5.86 
5.86 
5.86 
5.86 
5.86 
5.86 
5.86 
5.86 
5.86 
5.86 
5.86 
5.86 
5.86 
5.86 
5.86 
5.86 
5.86 
5.86 
5.86 
5.86 
5.86 
5.86 
5.86 
6.27 
6.27 
6.27 
6.27 
6.27 
6.27 
6.27 
6.27 
6.27 
6.27 
6.27 
6.27 
6.27 
6.27 
6.27 
6.27 
6.27 
6.27 
6.27 
6.27 
6.27 
6.27 
6.27 
6.27 
6.27 
6.27 
6.27 
6.27 
6.27 
6.67 

5.60 
5.75 
5.50 
5.75 
5.86 
5.65 
5.86 
5.55 
5.60 
5.45 
5.40 
6.11 
6.11 
6.11 
5.96 
6.16 
6.16 
6.21 
6.01 
5.60 
6.06 
5.96 
5.86 
6.08 
6.18 
6.39 
6.13 
6.39 
6.03 
6.18 
6.13 
6.13 
6.34 
6.08 
6.23 
6.18 
6.28 
6.23 
6.18 
6.54 
6.64 
6.23 
6.54 
6.28 
6.54 
6.54 
6.54 
6.64 
6.34 
6.44 
6.39 
6.23 
6.71 

29

2,2’,3,3’,4,5’-Hexachlorobiphenyl 
2,2’,3,3’,4,6-Hexachlorobiphenyl 
2,2’,3,3’,4,6’-Hexachlorobiphenyl 
2,2’,3,3’,5,6-Hexachlorobiphenyl 
2,2’,3,3’,5,6’-Hexachlorobiphenyl 
2,2’,3,4,4’,5-Hexachlorobiphenyl 
2,2’,3,4,4’,5’-Hexachlorobiphenyl 
2,2’,3,4,4’,6’-Hexachlorobiphenyl 
2,2’,3,4,5,5’-Hexachlorobiphenyl 
2,2’,3,4,5,6’-Hexachlorobiphenyl 
2,2’,3,4,5’,6-Hexachlorobiphenyl 
2,2’,3,4’,5,5’-Hexachlorobiphenyl 
2,2’,3,4’,5’,6-Hexachlorobiphenyl 
2,2’,3,5,5’,6-Hexachlorobiphenyl 
2,2’,4,4’,5,5’-Hexachlorobiphenyl 
2,2’,4,4’,5,6’-Hexachlorobiphenyl 
2,2’,4,4’,6,6’-Hexachlorobiphenyl 
2,3,3’,4,4’,5-Hexachlorobiphenyl 
2,3,3’,4,4’,6-Hexachlorobiphenyl 
2,3,3’,4’,5,6-Hexachlorobiphenyl 
2,3,3’,4’,5’,6-Hexachlorobiphenyl 
2,3,3’,5,5’,6-Hexachlorobiphenyl 
2,3’,4,4’,5,5’-Hexachlorobiphenyl 
3,3’,4,4’,5,5’-Hexachlorobiphenyl 
2,2’,3,3’,4,4’,5-Heptachlorobiphenyl 
2,2’,3,3’,4,5,5’-Heptachlorobiphenyl 
2,2’,3,3’,4,5,6’-Heptachlorobiphenyl 
2,2’,3,3’,4,5’,6-Heptachlorobiphenyl 
2,2’,3,3’,4,6,6’-Heptachlorobiphenyl 
2,2’,3,3’,4,5’,6’-Heptachlorobiphenyl 
2,2’,3,3’,5,5’,6-Heptachlorobiphenyl 
2,2’,3,3’,5,6,6’-Heptachlorobiphenyl 
2,2’,3,4,4’,5,5’-Heptachlorobiphenyl 
2,2’,3,4,4’,5,6-Heptachlorobiphenyl 
2,2’,3,4,4’,5,6’-Heptachlorobiphenyl 
2,2’,3,4,4’,5’,6-Heptachlorobiphenyl 
2,2’,3,4,5,5’,6-Heptachlorobiphenyl 
2,2’,3,4’,5,6,6’-Heptachlorobiphenyl 
2,3,3’,4,4’,5,5’-Heptachlorobiphenyl 
2,3,3’,4,4’,5,6-Heptachlorobiphenyl 
2,3,3’,4,4’,5’,6-Heptachlorobiphenyl 
2,3,3’,4,5,5’,6-Heptachlorobiphenyl 
2,3,3’,4’,5,5’,6-Heptachlorobiphenyl 
2,2’,3,3’,4,4’,5,5’-Octachlorobiphenyl 
2,2’,3,3’,4,4’,5,6-Octachlorobiphenyl 
2,2’,3,3’,4,4’,5,6’-Octachlorobiphenyl 
2,2’,3,4,4’,5,5’,6-Octachlorobiphenyl 
2,2’,3,4,4’,5,6,6’-Octachlorobiphenyl 
2,3,3’,4,4’,5,5’,6-Octachlorobiphenyl 
2,2’,3,3’,4,4’,5,5’,6-Nonachlorobiphenyl 
2,2’,3,3’,4,4’,5,6,6’-Nonachlorobiphenyl 

130 
131 
132 
134 
135 
137 
138 
140 
141 
143 
144 
146 
149 
151 
153 
154 
155 
156 
158 
163 
164 
165 
167 
169 
170 
172 
174 
175 
176 
177 
178 
179 
180 
181 
182 
183 
185 
188 
189 
190 
191 
192 
193 
194 
195 
196 
203 
204 
205 
206 
207 
*Experimental data taken from References [19,20]. 
aCalculated log P values using one parameter (NNH) regression. 
bCalculated log P values using two parameter (ω, NNH) regression 

0.108 
0.112 
0.107 
0.111 
0.106 
0.113 
0.109 
0.109 
0.112 
0.109 
0.112 
0.110 
0.107 
0.111 
0.110 
0.108 
0.108 
0.119 
0.115 
0.115 
0.110 
0.115 
0.112 
0.112 
0.116 
0.116 
0.113 
0.115 
0.112 
0.114 
0.114 
0.111 
0.115 
0.119 
0.113 
0.115 
0.118 
0.111 
0.119 
0.121 
0.119 
0.122 
0.118 
0.119 
0.121 
0.118 
0.121 
0.119 
0.125 
0.124 
0.122 

7.3 
6.78 
6.2 
6.2 
6.32 
6.82 
6.73 
6.58 
6.75 
6.56 
6.45 
6.85 
6.41 
6.42 
6.8 
6.65 
6.54 
7.44 
6.78 
6.78 
6.63 
7 
7.29 
7.55 
7.08 
7.21 
6.85 
6.92 
6.55 
6.73 
6.85 
6.41 
7.21 
7.13 
6.92 
7.04 
6.99 
6.78 
7.72 
7.08 
7.21 
7.21 
7.21 
7.62 
7.35 
7.43 
7.49 
7.48 
7.62 
7.94 
7.88 

6.67 
6.67 
6.67 
6.67 
6.67 
6.67 
6.67 
6.67 
6.67 
6.67 
6.67 
6.67 
6.67 
6.67 
6.67 
6.67 
6.67 
6.67 
6.67 
6.67 
6.67 
6.67 
6.67 
6.67 
7.08 
7.08 
7.08 
7.08 
7.08 
7.08 
7.08 
7.08 
7.08 
7.08 
7.08 
7.08 
7.08 
7.08 
7.08 
7.08 
7.08 
7.08 
7.08 
7.49 
7.49 
7.49 
7.49 
7.49 
7.49 
7.89 
7.89 

6.51 
6.71 
6.46 
6.66 
6.41 
6.76 
6.56 
6.56 
6.71 
6.56 
6.71 
6.61 
6.46 
6.66 
6.61 
6.51 
6.51 
7.07 
6.87 
6.87 
6.61 
6.87 
6.71 
6.71 
7.09 
7.09 
6.94 
7.04 
6.89 
6.99 
6.99 
6.83 
7.04 
7.24 
6.94 
7.04 
7.19 
6.83 
7.24 
7.34 
7.24 
7.40 
7.19 
7.42 
7.52 
7.36 
7.52 
7.42 
7.72 
7.84 
7.74 

 

30

P
g
o

l
 
l

a

t

n
e
m

i
r
e
p
x
E

7.5

7.0

6.5

6.0

5.5

5.0

4.5

 

8.0

7.5

7.0

6.5

6.0

5.5

5.0

4.5

P
g
o

l
 
l

a

t

n
e
m

i
r
e
p
x
E

8.0 Calc. log P=0.3950*N

-0.4043

NH

8.0 Calc.log P=46.9580*ω+0.1863* N

 -1.8890

NH

 

 

R2=0.832; R2
Ad
CV
               SD=0.276; N=100

=0.830; R2

=0.824

R2=0.905; R2
Ad
CV
               SD=0.206; N=100

=0.904; R2

=0.900

4.5

5.0

5.5

6.0

6.5

7.0

7.5

8.0

Calculated logP

4.5

5.0

5.5

6.0

6.5

7.0

7.5

8.0

Calculated logP

                                  (a)                                                                  (b) 
Figure 6: Calculated vs experimental values of logP for the training set of 100 PCBs 
using (a) one parameter (NNH) and (b) two parameter (NNH, ω) regressions 
 
Regression Equations: 
 
Parameters 
   One  
    Two  
 

Regression Equations 
Calculated log P=0.3950*NNH-0.4043 
Calculated log P=46.9580*ω+0.1863* NNH -1.8890 

R2 
0.824 
0.900 

R2 
0.832 
0.905 

(CV)  R2 

0.830 
0.904 

(Ad) 

 

 

 

 

 

 

R2=0.873; R2
Ad
CV
               SD=0.346; N= 33

=0.869; R2

=0.856

5.5
6.5
6.0
Calculated logP

R2=0.906; R2
Ad
CV
               SD=0.299; N= 33

=0.903; R2

=0.891

Calculated logP

4.5

5.0

7.0

7.5

8.0

4.5

5.0

5.5

6.0

6.5

7.0

7.5

8.0

                                   (a)                                                                (b) 
Figure 7: Calculated vs experimental values of log P for the test set of 33 PCBs using 
(a) one parameter (NNH) and (b) two parameter (NNH, ω) regressions. 
 
Regression Coefficients: 
 
Parameters  R2 
One  
Two  
 

(Ad) 
0.869 
0.903 

R2 
0.856 
0.891 

0.873 
0.906 

(CV)  R2 

P
g
o
l
 
l
a
t
n
e
m

i
r
e
p
x
E

7.5

7.0

6.5

6.0

5.5

5.0

4.5

8.0

7.5

7.0

6.5

6.0

5.5

5.0

4.5

P
g
o

l
 
l
a
t

n
e
m

i
r
e
p
x
E

 

 

 

31

 

 

Calc. log P=0.4064* N

 -0.6418

NH

8.0 Calc.d log P =51.0148*ω +0.17292* N

 - 2.1133

NH

 

P
g
o
l
 
l
a
t
n
e
m

i
r
e
p
x
E

7.5

7.0

6.5

6.0

5.5

5.0

4.5

 

 

R2=0.842; R2
=0.841; R2
Ad
CV
             SD=0.302; N=133

=0.836

R2=0.906; R2
=0.906; R2
Ad
CV
             SD=0.233; N=133

=0.902

4.5

5.0

5.5

6.0

6.5

7.0

7.5

8.0

4.0

4.5

5.0

5.5

6.0

6.5

7.0

7.5

8.0

Calculated logP

Calculated logP

 
Figure 8:  Calculated vs experimental values of log P for the complete set of 133 PCBs 
using (a) one parameter (NNH) and (b) two parameter (NNH, ω) regressions. 
 
Regression Equations: 
 

Calculated log P=0.4064* NNH -0.6418 
Calculated log P =51.0148*ω +0.17292* NNH -2.1133 

(CV)  R2 

R2 

R2 
0.842    0.836 
   0.902 
0.906 

(Ad) 
 0.841 
 0.906 

8.0

7.5

7.0

6.5

6.0

5.5

5.0

4.5

P
g
o
l
 
l
a
t
n
e
m

i
r
e
p
x
E

 

 

Parameters  Regression Equations 
One  
Two  
 
 
 
 
 
 
 
 
 
 
 
 
 
 
 
 
 
 
 
 
 
 
 
 
 

32

  Table 9: QSPR models for log P calculation of chloroanisole 
 

log P Value 

ω  
(au) 

Exptl* 

Compounds 

2-CAS 
3-CAS 
4-CAS 
2,3-C2AS 
2,4-C2AS 
2,5-C2AS 
2,6-C2AS 
3,4-C2AS 
3,5-C2AS 
2,3,4-C3AS 
2,3,5-C3AS 
2,3,6-C3AS 
2,4,5-C3AS 
2,4,6-C3AS 
3,4,5-C3AS 
2,3,4,5-C4AS 
2,3,4,6-C4AS 
2,3,5,6-C4AS 
PCAS 

Calcda 
NNH 
2.91 
2.91 
2.91 
3.45 
3.45 
3.45 
3.45 
3.45 
3.45 
4.00 
4.00 
4.00 
4.00 
4.00 
4.00 
4.55 
4.55 
4.55 
5.10 
*Experimental data taken from References [19,20]. 
aCalculated log P values using one parameter (NNH) regression. 
bCalculated log P values using two parameter (ω, NNH) regressio 

0.0630 
0.0654 
0.0646 
0.0753 
0.0773 
0.0770 
0.0839 
0.0768 
0.0799 
0.0871 
0.0892 
0.0943 
0.0893 
0.0977 
0.0891 
0.0991 
0.1067 
0.1057 
0.1162 

2.72 
3.09 
3.00 
3.30 
3.46 
3.27 
3.19 
3.55 
3.88 
3.92 
4.05 
3.76 
3.95 
4.05 
4.23 
4.57 
4.53 
4.52 
5.16 

Calcdb 
ω, NNH 
2.92 
2.91 
2.91 
3.47 
3.46 
3.46 
3.43 
3.46 
3.45 
4.02 
4.01 
3.99 
4.01 
3.97 
4.01 
4.57 
4.54 
4.54 
5.10 

 

 

Calc. log P = 0.547*N

 - 2.018

NH

Calc. log P = -4.161*ω+ 0.601*N

 -2.234

NH

5.5

5.0

4.5

4.0

3.5

3.0

2.5

P
g
o

l
 
l

t

a
n
e
m

i
r
e
p
x
E

 

 

5.5

5.0

4.5

3.5

3.0

P
g
o

l
 
l

t

a
n
e
m

i
r
e
p
x
E

2.5

2.5

  

 

4.0

 

 

R2=0.927; R2
=0.923; R2
Ad
CV
             SD=0.176;   N=19

=0.914

R2=0.928; R2
=0.924; R2
Ad
CV
             SD=0.175;   N=19

=0.914

2.5

3.0

3.5

4.0

4.5

5.0

5.5

Calculated logP

3.0

3.5

4.0

4.5

5.0

5.5

Calculated logP

 

 

 

 

 

 

(a) 

(b) 

 
 
Figure  9:  Calculated  vs  experimental  values  of  log  P  of  Chloroanisole  using  (a)  one 
parameter (NNH) and (b) two parameter (NNH, ω) regressions 
 
Regression Equations: 
Parameters 
One  
Two  
 

Regression Equations 
Calculated log P = 0.547*NNH - 2.018 
Calculated log P = - 4.161*ω+ 0.601* NNH -2.234 

R2 
0.914 
0.914 

R2 
0.927 
0.928 

(CV)  R2 

(Ad) 

0.923 
0.924 

 

33

Table 10: pKa prediction using group philicity and no. of carbon atoms in a molecule. 
 

Molecules 
 

+

gω  

Exptl*
 

pKa  Value 
Calcda 
(NC) 

Calcdb 
gω , NC) 

+

(

 
Acids 
0.612 
pivalic acid 
0.661 
propionic acid 
0.618 
isobutyric acid 
0.653 
valeric acid 
0.65 
Butyric acid 
0.664 
isovaleric acid 
0.694 
Acetic acid 
0.713 
4-bromobutyric acid 
0.709 
4-chlorobutyric acid 
0.718 
glutaric acid 
0.537 
vinylacetic acid 
0.828 
succinic acid 
3-bromopropionic acid  0.713 
0.713 
Lactic acid 
0.699 
Glycolic acid 
0.74 
2-hydroxybutyric acid 
0.532 
mercaptoacetic acid 
0.812 
Formic acid 
2-bromopropionic acid  1.13 
0.77 
bromoacetic acid 
2-chloropropionic acid  1.053 
1.024 
2-chlorobutyric acid 
0.851 
malonic acid 
0.813 
Chloroacetic acid 
0.871 
fluoroacetic acid 
1.121 
2-bromobutyric acid 
1.036 
cyanoacetic acid 
1.298 
dichloroacetic acid 
1.141 
difluroacetic acid 
1.389 
trichloroacetic acid 
Substituted Phenols 
o-methylphenol 
o-chlorophenol 
o-nitrophenol 
m-nitrophenol 
p-methoxyphenol 
p-methylphenol 
p-chlorophenol 

0.11 
0.15 
0.53 
0.49 
0.11 
0.12 
0.15 

 
5.05 
4.87 
4.86 
4.86 
4.82 
4.78 
4.76 
4.58 
4.52 
4.35 
4.34 
4.2 
3.99 
3.86 
3.83 
3.68 
3.67 
3.55 
2.97 
2.9 
2.88 
2.84 
2.83 
2.82 
2.59 
2.55 
2.45 
1.26 
1.24 
0.63 

 
4.68 
3.45 
4.06 
4.68 
4.06 
4.68 
2.83 
4.06 
4.06 
4.68 
4.06 
4.06 
3.45 
3.45 
2.83 
4.06 
2.83 
2.22 
3.45 
2.83 
3.45 
4.06 
3.45 
2.83 
2.83 
4.06 
2.83 
2.83 
2.83 
2.83 

 
5.01 
4.18 
4.67 
4.84 
4.54 
4.80 
3.72 
4.28 
4.29 
4.57 
5.00 
3.80 
3.96 
3.96 
3.70 
4.17 
4.39 
2.92 
2.24 
3.41 
2.56 
3.00 
3.39 
3.23 
2.99 
2.60 
2.31 
1.24 
1.88 
0.86 

10.3 
8.6 
7.2 
8.4 
10.2 
10.3 
9.4 

10.30 
8.43 
8.43 
8.43 
10.30 
10.30 
8.43 

10.30 
9.21 
7.40 
7.59 
10.30 
10.20 
9.21 

 

34

7.2 
9.8 

0.44 
0.12 

8.43 
8.43 

p-nitrophenol 
p-hydroxyphenol 
Alcohols 
2-butanol 
1,2-ethanediol 
1,2-propanediol 
1,3- propanediol 
1,4-butanediol 
Ethanol 
propanol 
tert-butyl alcohol 
2-methoxyethanol 
*Experimental data taken from References [24-26]. 
aCalculated pKa values using one parameter (NC) regression. 
bCalculated pKa values using two parameter (

0.194 
0.346 
0.297 
0.282 
0.257 
0.263 
0.239 
0.181 
0.248 

17.02 
14.33 
15.67 
15.67 
17.02 
14.33 
15.67 
17.02 
15.67 

17.6 
13.6 
14.9 
15.1 
15.1 
15.9 
16.2 
19.2 
14.8 

+

gω , NC) regression 

7.83 
9.35 

17.68 
13.11 
14.50 
15.00 
15.59 
15.86 
16.42 
18.11 
16.12 

 

 

Y= -3.12164E-10 + 1*X

Y = -2.58746E-10 + 1*X

l

e
u
a
v
 
a
K
p
 
l
a
t
n
e
m

i
r
e
p
x
E

20

15

10

5

0

 

 

R2=0.9604; R2
         SD=1.003; N=48

Ad

=0.9596; R2

CV

=0.9558

R2=0.9906; R2
           SD=0.490; N=48

=0.9904; R2

Ad

CV

=0.9895

0

2

4

6

8

10

12

14

16

18

0

2

4

6

8

10

12

14

16

18

20

Calculated pKa value

Calculated pKa value

                               (a)                                                                    (b) 
Figure 10: Relationship between the calculated pKa values with experimental pKa values 
using a) one parameter (NC) and b) two parameter (
 

gω , NC) regressions 

+

  Parameters R2 
One  
Two  

R2 (cv) R2 (ad) 
0.9604  0.9558  0.9596 
0.9906  0.9895  0.9904 

l

e
u
a
v
 

a
K
p

 
l

a

t

n
e
m

i
r
e
p
x
E

20

15

10

5

0

 
 
 
 

 

 

 

35

